;time;amplitude
0;0.0028144999996584374;2407
1;0.005607899998722132;2407
2;0.008800699999483186;2407
3;0.011795599999459228;2407
4;0.014930299999832641;2406
5;0.01923229999920295;2406
6;0.022067099998821504;2406
7;0.025947499998437706;2405
8;0.02989259999958449;2405
9;0.03428689999964263;2404
10;0.03821339999922202;2404
11;0.042255299998942064;2403
12;0.04622989999916172;2403
13;0.049813799998446484;2402
14;0.05382939999981318;2402
15;0.058363599999211146;2401
16;0.06226609999976063;2401
17;0.06603670000004058;2400
18;0.06999550000000454;2400
19;0.07281849999890255;2400
20;0.07687780000014754;2399
21;0.08019929999863962;2399
22;0.08425499999975727;2398
23;0.0880565999996179;2398
24;0.0911138999999821;2397
25;0.094951699999001;2397
26;0.09810560000005353;2396
27;0.10094429999844579;2396
28;0.10381090000009863;2396
29;0.1069467999986955;2396
30;0.10989919999883568;2395
31;0.1130379999995057;2395
32;0.11590879999857862;2395
33;0.11902519999966898;2395
34;0.12193109999861917;2395
35;0.1246964999991178;2394
36;0.1277312999991409;2394
37;0.13077789999988454;2393
38;0.13395179999861284;2393
39;0.13673819999894476;2393
40;0.13966099999925063;2393
41;0.14290359999904467;2393
42;0.14603410000017902;2392
43;0.14890310000009777;2392
44;0.1520236999986082;2392
45;0.15475879999939934;2392
46;0.15790089999973134;2391
47;0.1607544999988022;2391
48;0.16375269999844022;2391
49;0.16687669999919308;2390
50;0.16976569999860658;2390
51;0.1728689999999915;2390
52;0.17575679999936256;2389
53;0.17850019999968936;2389
54;0.1804813999988255;2388
55;0.18361379999987548;2388
56;0.18671209999956773;2387
57;0.18988379999973404;2387
58;0.19267739999850164;2387
59;0.19596629999978177;2386
60;0.19896220000009635;2386
61;0.20171639999898616;2386
62;0.2048016999997344;2385
63;0.20782779999899503;2385
64;0.2105000999999902;2384
65;0.212432299998909;2384
66;0.21456579999903624;2384
67;0.21658559999923455;2383
68;0.21857029999955557;2383
69;0.2205294999985199;2383
70;0.2224525999990874;2383
71;0.22447879999890574;2383
72;0.22757009999986622;2382
73;0.22969799999918905;2382
74;0.23277299999972456;2382
75;0.23576989999855869;2382
76;0.23854969999956666;2382
77;0.2417752000001201;2381
78;0.24470259999907285;2381
79;0.24755179999920074;2380
80;0.25078539999958593;2381
81;0.2533936999989237;2380
82;0.25579219999963243;2379
83;0.2585695999987365;2379
84;0.26166729999931704;2379
85;0.2645102999995288;2379
86;0.26643460000013874;2379
87;0.26856210000005376;2379
88;0.2704801999989286;2378
89;0.2725252999989607;2378
90;0.27588029999969876;2378
91;0.27867519999927026;2378
92;0.28154059999906167;2378
93;0.2847050999989733;2377
94;0.28756719999910274;2377
95;0.2906794999998965;2377
96;0.29367869999987306;2376
97;0.2965188999987731;2376
98;0.29965639999863924;2376
99;0.3028257999994821;2375
100;0.305513899998914;2375
101;0.3075639999988198;2375
102;0.30950299999858544;2375
103;0.3115782999993826;2374
104;0.31356199999936507;2374
105;0.31658090000019;2374
106;0.3185420999998314;2374
107;0.3205643000001146;2374
108;0.32241139999860025;2374
109;0.3243860999991739;2374
110;0.32641729999886593;2373
111;0.32838660000015807;2374
112;0.3308562999991409;2374
113;0.33373799999935727;2373
114;0.3364958000001934;2373
115;0.33845949999886216;2373
116;0.3405700999992405;2373
117;0.3433568999989802;2373
118;0.34553849999974773;2372
119;0.3476109999992332;2372
120;0.3506221999996342;2372
121;0.353419600000052;2372
122;0.3565796999992017;2372
123;0.35999269999956596;2372
124;0.3627249999990454;2372
125;0.36570190000020375;2371
126;0.3687374999990425;2371
127;0.3716127999996388;2371
128;0.37515650000023015;2371
129;0.4058553999984724;2370
130;0.4085185999992973;2369
131;0.4105509999990318;2369
132;0.41337430000021413;2369
133;0.4154679999992368;2369
134;0.41756579999855603;2369
135;0.41936119999991206;2369
136;0.4223547999990842;2369
137;0.42511039999953937;2369
138;0.42751679999855696;2369
139;0.4306182999989687;2368
140;0.4339474999997037;2368
141;0.43693789999997534;2368
142;0.4397075999986555;2368
143;0.44277689999944414;2368
144;0.44686729999921226;2369
145;0.44960809999975027;2369
146;0.452809200000047;2368
147;0.4559761000000435;2368
148;0.45864809999875433;2368
149;0.4616470000000845;2368
150;0.46482990000004065;2368
151;0.46946789999856264;2368
152;0.47308999999950174;2368
153;0.47750599999926635;2368
154;0.4812391999985266;2367
155;0.4852517999988777;2367
156;0.48889219999909983;2367
157;0.49196419999861973;2367
158;0.49591069999951287;2367
159;0.498964899999919;2367
160;0.5029973000000609;2367
161;0.5063283999988926;2366
162;0.5101495999988401;2367
163;0.5142437999984395;2366
164;0.51777519999996;2366
165;0.5206226999998762;2366
166;0.5241707999994105;2366
167;0.5282698999999411;2366
168;0.5321996999991825;2366
169;0.5350946999988082;2366
170;0.5377042000000074;2366
171;0.5406758999997692;2366
172;0.5438070000000153;2365
173;0.5467119999993884;2366
174;0.5495883999992657;2365
175;0.552829299998848;2365
176;0.5558413999988261;2365
177;0.5588227999996889;2365
178;0.5618147999994108;2365
179;0.5647333999986586;2365
180;0.5678216999986034;2365
181;0.5706040999994002;2365
182;0.5738046999995277;2365
183;0.5768136999995477;2365
184;0.5798161999991862;2365
185;0.582824699999037;2365
186;0.5858265999995638;2365
187;0.5888337999986106;2365
188;0.5918254999996861;2364
189;0.5948186999994505;2365
190;0.59781589999875;2365
191;0.6008283999999549;2365
192;0.6034881999985373;2364
193;0.606820199998765;2365
194;0.6098241999989114;2365
195;0.612805799999478;2365
196;0.6158262999997532;2365
197;0.618818699998883;2365
198;0.62182329999996;2365
199;0.6248142999993433;2365
200;0.6276185999995505;2365
201;0.6308230999984517;2365
202;0.6338268999988941;2365
203;0.6366512999993574;2365
204;0.6398254999985511;2365
205;0.6428317999998399;2365
206;0.6458284000000276;2365
207;0.6488382999996247;2365
208;0.6518169999999373;2365
209;0.654856999999538;2365
210;0.657839999999851;2365
211;0.6608204999993177;2365
212;0.6638065999995888;2365
213;0.6668138999993971;2365
214;0.6697284999991098;2365
215;0.6728227999992669;2365
216;0.6756659000002401;2365
217;0.67882869999994;2365
218;0.6818094999998721;2365
219;0.6848233999990043;2364
220;0.6878123999995296;2365
221;0.6905087999984971;2365
222;0.6924622999995336;2365
223;0.6958217999999761;2366
224;0.6988167999988946;2366
225;0.701825000000099;2366
226;0.7048341999998229;2366
227;0.7077263999999559;2366
228;0.7108764999993582;2366
229;0.7138832000000548;2366
230;0.7168817000001582;2366
231;0.7198043999997026;2366
232;0.7227371999997558;2366
233;0.7256502000000182;2367
234;0.7287510999994993;2367
235;0.7316765999985364;2366
236;0.7347364999986894;2366
237;0.7376735999987432;2366
238;0.7408785999996326;2366
239;0.7438478999993094;2366
240;0.7468341999992845;2366
241;0.7498282999986259;2366
242;0.7525988999987021;2366
243;0.754838099999688;2366
244;0.7578302999991138;2366
245;0.7608079999990878;2366
246;0.7638360999990255;2366
247;0.7668434999995952;2366
248;0.7698923999996623;2366
249;0.7728771999991295;2366
250;0.775822399999015;2365
251;0.7788330999992468;2366
252;0.7818526999999449;2366
253;0.7848533999986103;2366
254;0.7878583000001527;2366
255;0.7908548999985214;2366
256;0.7938528999984555;2366
257;0.7968681000002107;2366
258;0.7995319999990897;2366
259;0.8028556999997818;2366
260;0.8058607999992091;2366
261;0.808868000000075;2366
262;0.8118541999992885;2366
263;0.8148854999999458;2366
264;0.8178623999992851;2366
265;0.8206861999988178;2366
266;0.8238669000002119;2366
267;0.8266070999998192;2366
268;0.8298569999988104;2366
269;0.8328630999985762;2366
270;0.8358606999991025;2366
271;0.838864299999841;2366
272;0.8418566000000283;2365
273;0.8448601999989478;2365
274;0.8476484999991953;2366
275;0.8508566000000428;2366
276;0.8535837999988871;2365
277;0.8568848999984766;2365
278;0.8598511000000144;2365
279;0.8628649999991467;2365
280;0.865860399999292;2365
281;0.8688573999988876;2365
282;0.8718873999987409;2365
283;0.8748735999997734;2365
284;0.877648899999258;2365
285;0.88087429999905;2365
286;0.883860599999025;2365
287;0.8865623000001506;2365
288;0.8898498999988078;2365
289;0.8928478999987419;2365
290;0.8958437999990565;2365
291;0.8988622999986546;2365
292;0.9018646999993507;2365
293;0.9048704999986512;2365
294;0.9078572999987955;2366
295;0.9106718999992154;2366
296;0.9138984000001074;2366
297;0.9168589999990218;2366
298;0.9198046999990765;2366
299;0.922879899999316;2365
300;0.9258436999989499;2365
301;0.9288367999997718;2366
302;0.931767399999444;2365
303;0.9349130999999034;2365
304;0.9378397000000405;2365
305;0.9406300999999075;2365
306;0.9436716999989585;2366
307;0.9467047999987699;2365
308;0.9498285999998188;2365
309;0.952905499998451;2365
310;0.9558835999996518;2365
311;0.95887810000022;2365
312;0.9618598999986716;2365
313;0.9646779999984574;2365
314;0.9676955999984784;2365
315;0.9705039999989822;2365
316;0.9743017000000691;2365
317;0.9781397999995534;2365
318;0.9821522000002005;2365
319;0.9864278999993985;2365
320;0.9897666999986541;2365
321;0.9926317999997991;2365
322;0.9958084999998391;2365
323;0.9988096999986738;2365
324;1.0016584999993938;2365
325;1.0048690999992687;2365
326;1.0077571000001626;2365
327;1.0106563999997888;2365
328;1.0136805999991338;2365
329;1.0170994000000064;2365
330;1.021145599999727;2366
331;1.025455699998929;2366
332;1.0305031999996572;2365
333;1.0354904999985592;2366
334;1.0405494999995426;2365
335;1.045584699999381;2365
336;1.050566500000059;2366
337;1.055158899998787;2366
338;1.0595560999990994;2366
339;1.0631679999987682;2366
340;1.066854400000011;2366
341;1.0699495999997453;2366
342;1.0730176999986725;2366
343;1.077100900000005;2366
344;1.0810253999989072;2366
345;1.0840170999999827;2366
346;1.087801199999376;2366
347;1.0909848999999667;2366
348;1.0939784999991389;2366
349;1.0981097999992926;2366
350;1.102105500000107;2367
351;1.1050035999996908;2366
352;1.108007799999541;2367
353;1.1109754999997676;2367
354;1.1140770999991219;2367
355;1.1183151999994152;2367
356;1.1222667999991245;2367
357;1.1261971999992966;2367
358;1.1287096999985806;2367
359;1.131669399999737;2367
360;1.13520619999872;2367
361;1.1391996999991534;2367
362;1.1430536999996548;2366
363;1.1472213999986707;2366
364;1.1512076999988494;2366
365;1.1551559999988967;2366
366;1.1588931999995111;2366
367;1.1632196999998996;2366
368;1.1671009000001504;2366
369;1.1708092999997461;2366
370;1.174775800000134;2366
371;1.1781555999987177;2366
372;1.182241399999839;2366
373;1.1861771999992925;2366
374;1.1889866000001348;2366
375;1.1921501999986504;2366
376;1.196230800000194;2366
377;1.2001989000000322;2366
378;1.2038223999988986;2366
379;1.2081994000000122;2366
380;1.2118946999999025;2367
381;1.2151477999996132;2367
382;1.2188838000001851;2367
383;1.2221446999992622;2367
384;1.2262410999992426;2366
385;1.2301895999989938;2367
386;1.2341679000001022;2367
387;1.2377950999998575;2367
388;1.2410171999999875;2367
389;1.2441416999990906;2366
390;1.2479767999993783;2366
391;1.2512279000002309;2366
392;1.2551370000001043;2366
393;1.259212999999363;2366
394;1.2631896999992023;2366
395;1.2672336999985419;2366
396;1.2700397999997222;2366
397;1.274242099998446;2366
398;1.2782025999986217;2366
399;1.282201999998506;2365
400;1.2861421999987215;2366
401;1.2891452999992907;2365
402;1.2932005000002391;2366
403;1.297196099998473;2366
404;1.3010053999987576;2366
405;1.3051658999993379;2365
406;1.3092503999996552;2365
407;1.3131937999987713;2365
408;1.3172076999999263;2366
409;1.320802399999593;2366
410;1.324004000000059;2365
411;1.3279672999997274;2366
412;1.3310991999987891;2366
413;1.335212899999533;2366
414;1.3392147999984445;2366
415;1.343212300000232;2366
416;1.3469831999991584;2365
417;1.3512526999984402;2365
418;1.3551663999987795;2366
419;1.3592203999996855;2366
420;1.3627652999985003;2366
421;1.365995499998462;2366
422;1.3701736999992136;2366
423;1.373152399999526;2366
424;1.3772374000000127;2366
425;1.3812043999987509;2366
426;1.3852011999988463;2366
427;1.3892082999991544;2366
428;1.3932571999994252;2366
429;1.3969940999995742;2366
430;1.4012140999984695;2366
431;1.405166399999871;2366
432;1.4092497000001458;2366
433;1.4132061999989673;2366
434;1.417195099998935;2366
435;1.4207649999989371;2367
436;1.4241502999993827;2366
437;1.4281217999996443;2366
438;1.4322291999997105;2366
439;1.4362197999998898;2366
440;1.4389950999993744;2366
441;1.4427595999986806;2366
442;1.445663999998942;2366
443;1.4489200999996683;2366
444;1.4522256999989622;2366
445;1.4547207999985403;2366
446;1.459058799999184;2366
447;1.4629586999999447;2365
448;1.465801399999691;2365
449;1.4700385999985883;2365
450;1.472995499998433;2365
451;1.4759684999989986;2365
452;1.4789721999986796;2365
453;1.4820044999996753;2365
454;1.4850279000002047;2365
455;1.4892220999990968;2365
456;1.4931964999996126;2365
457;1.4971561999991536;2365
458;1.4999795999992784;2365
459;1.5024990999991132;2365
460;1.5061635000001843;2365
461;1.5088851000000432;2365
462;1.5121870999992097;2365
463;1.5148809000002075;2365
464;1.5179825999985042;2365
465;1.5207571999999345;2365
466;1.5239535000000615;2365
467;1.5269190999988496;2366
468;1.5299188999997568;2366
469;1.5329290999998193;2365
470;1.5359214000000065;2366
471;1.5388945999984571;2366
472;1.541886399998475;2366
473;1.5448892999993404;2366
474;1.547891799998979;2366
475;1.5508876999992935;2366
476;1.5536187999987305;2366
477;1.5568960000000516;2366
478;1.5598941999996896;2366
479;1.562894699998651;2366
480;1.5658978999999817;2366
481;1.5688862999995763;2365
482;1.5718985999992583;2366
483;1.5748829999993177;2366
484;1.5778959999988729;2366
485;1.5807475000001432;2366
486;1.5839125999991666;2366
487;1.5866630999989866;2366
488;1.589917699999205;2366
489;1.592899999999645;2366
490;1.595866699999533;2366
491;1.5988935999994283;2366
492;1.6018973999998707;2366
493;1.6048890999991272;2367
494;1.6078930999992735;2366
495;1.610894699999335;2367
496;1.6147196999991138;2367
497;1.617894899998646;2367
498;1.620738599998731;2367
499;1.623893500000122;2367
500;1.6267755999997462;2367
501;1.62988679999944;2367
502;1.63292729999921;2367
503;1.635937399998511;2367
504;1.6388988999988214;2367
505;1.6419136999993498;2367
506;1.6446990999993432;2366
507;1.6476838999988104;2366
508;1.6508966999990662;2367
509;1.653591199999937;2367
510;1.6568988999988505;2367
511;1.659551199998532;2366
512;1.6628934999989724;2366
513;1.6659185999997135;2366
514;1.6688976999994338;2366
515;1.671922800000175;2366
516;1.6749204999996437;2366
517;1.6779045999992377;2366
518;1.6809157999996387;2366
519;1.6838931999991473;2365
520;1.6865956999990885;2365
521;1.6898845999985497;2365
522;1.6925870999984909;2365
523;1.6959080999986327;2365
524;1.698895800000173;2365
525;1.7018929999994725;2365
526;1.7048783999998705;2366
527;1.707573699999557;2365
528;1.710764299999937;2366
529;1.7137532999986433;2366
530;1.7165721999990637;2366
531;1.7196370999990904;2366
532;1.7228470999998535;2366
533;1.725903999998991;2366
534;1.728782999998657;2365
535;1.7318083999998635;2365
536;1.7348253000000113;2365
537;1.7378856999985146;2365
538;1.740860399999292;2365
539;1.7438611999987188;2365
540;1.7467081999984657;2365
541;1.7497323999996297;2365
542;1.7525779999996303;2365
543;1.754886599999736;2365
544;1.7579330999997183;2365
545;1.760930599999483;2365
546;1.7639208999989933;2365
547;1.7667418999990332;2365
548;1.7695635000000038;2365
549;1.7716335999994044;2365
550;1.7736165999995137;2365
551;1.7770554999988235;2365
552;1.7811912999986816;2365
553;1.78516320000017;2365
554;1.7892155999998067;2365
555;1.7931905999994342;2365
556;1.7971753000001627;2365
557;1.8011661999989883;2365
558;1.805175199999212;2366
559;1.8091809999987163;2366
560;1.8131690999998682;2366
561;1.817171699998653;2365
562;1.8211277999998856;2365
563;1.824977399999625;2365
564;1.8289651999984926;2365
565;1.8331526000001759;2365
566;1.8367263000000094;2366
567;1.8401151999987633;2365
568;1.8429380999987188;2365
569;1.8459416999994573;2365
570;1.84897219999948;2365
571;1.8519753000000492;2365
572;1.8549148999991303;2365
573;1.8579152000002068;2364
574;1.8609103999988292;2364
575;1.8637129999988247;2364
576;1.866736599999058;2364
577;1.8697799000001396;2364
578;1.872930699999415;2364
579;1.8759353999994346;2364
580;1.8785904999986087;2364
581;1.8817239999989397;2364
582;1.8847274999989168;2364
583;1.8877320999999938;2364
584;1.8907318000001396;2364
585;1.8935075999997935;2364
586;1.8956963999989966;2364
587;1.8986949999998615;2364
588;1.9023164999998698;2364
589;1.9052664999999251;2364
590;1.9089698999996472;2365
591;1.9131863999991765;2365
592;1.9171572999985074;2365
593;1.9211438999991515;2365
594;1.9246782999998686;2365
595;1.9279062999994494;2365
596;1.9309017999985372;2365
597;1.9339106999996147;2366
598;1.9366448000000673;2365
599;1.9397254999985307;2365
600;1.9426991999989696;2366
601;1.9456918999985646;2366
602;1.9476514999987558;2365
603;1.9506862999987788;2365
604;1.9535841999986587;2365
605;1.9565210000000661;2365
606;1.9587238999993133;2365
607;1.961701099999118;2365
608;1.9636496999992232;2366
609;1.966702699999587;2366
610;1.9697435999987647;2366
611;1.9737064999990253;2366
612;1.976879599998938;2366
613;1.9799179999990884;2366
614;1.9829242999985581;2366
615;1.9858828999986144;2366
616;1.9888376999988395;2366
617;1.991845499998817;2366
618;1.9948164999987057;2366
619;1.9982288999999582;2366
620;2.0022005999999237;2366
621;2.0047674999987066;2366
622;2.0080089999992197;2367
623;2.0109475999997812;2366
624;2.013814799998727;2367
625;2.016757699999289;2367
626;2.019796699998551;2367
627;2.0229414999994333;2367
628;2.025937899999917;2367
629;2.0289025000001857;2366
630;2.0319951999990735;2367
631;2.0349939999996423;2366
632;2.0379018999992695;2366
633;2.040977599999678;2366
634;2.0439637999988918;2365
635;2.046992199999295;2365
636;2.049976599999354;2365
637;2.0528044999991835;2365
638;2.05593239999871;2365
639;2.058918699998685;2365
640;2.0619136999994225;2365
641;2.064737699998659;2365
642;2.067756599999484;2365
643;2.0707259999999224;2365
644;2.073691499999768;2365
645;2.076690599998983;2365
646;2.0797238999984984;2365
647;2.083318999999392;2364
648;2.086801800000103;2365
649;2.090119799999229;2364
650;2.0941731999992044;2365
651;2.098177099998793;2365
652;2.1021989999990183;2365
653;2.1051692999990337;2365
654;2.109180399998877;2366
655;2.1130536000000575;2366
656;2.1154649999989488;2366
657;2.117632199999207;2366
658;2.1195596999987174;2366
659;2.1215500999987853;2366
660;2.1235440999989805;2366
661;2.126800699999876;2366
662;2.1296054999984335;2366
663;2.1328572999991593;2365
664;2.1358235999996396;2365
665;2.138930999999502;2365
666;2.141808899999887;2365
667;2.1449185000001307;2365
668;2.147804799998994;2365
669;2.150687100000141;2365
670;2.1535721000000194;2365
671;2.156764800000019;2365
672;2.1601802999994106;2364
673;2.1639742999996088;2365
674;2.1671446000000287;2365
675;2.171306700000059;2364
676;2.1748404999998456;2364
677;2.177658699998574;2364
678;2.1810834999996587;2364
679;2.185096600000179;2364
680;2.1895378999997774;2365
681;2.1947168999995483;2364
682;2.1992215999998734;2365
683;2.204238599999371;2365
684;2.2081410999999207;2365
685;2.211891099999775;2365
686;2.215001599999596;2365
687;2.2190187999985937;2365
688;2.222087799998917;2366
689;2.226150799999232;2366
690;2.2299430999992182;2366
691;2.233723800000007;2366
692;2.2367088999999396;2366
693;2.2396666999993613;2366
694;2.2428228999997373;2366
695;2.2456351999990147;2366
696;2.248731499999849;2365
697;2.2518466000001354;2366
698;2.2546583999992436;2365
699;2.2577733999987686;2365
700;2.2606875999990734;2365
701;2.2637182999988;2365
702;2.266697299999578;2365
703;2.269494599999234;2365
704;2.2716565999999148;2365
705;2.2737062999985937;2365
706;2.2766354999985197;2365
707;2.2798922000001767;2365
708;2.2829209999999875;2365
709;2.2857276999984606;2365
710;2.288957599999776;2365
711;2.291773499999181;2366
712;2.2946054999993066;2365
713;2.297763799999302;2365
714;2.300549699999465;2365
715;2.3035674999991897;2366
716;2.3068556999987777;2366
717;2.3098188999993;2366
718;2.3126959999990504;2366
