;time;amplitude
0;0.0038812000002508285;1391
1;0.0075515000007726485;1388
2;0.011561100000108127;1385
3;0.015831500000786036;1382
4;0.01996780000081344;1379
5;0.023860400000558002;1376
6;0.027930000000196742;1374
7;0.031485999999858905;1372
8;0.035860200001479825;1370
9;0.03993840000111959;1368
10;0.043892600000617676;1366
11;0.04755540000041947;1365
12;0.051923200000601355;1364
13;0.055775100001483224;1363
14;0.05957300000045507;1362
15;0.06290310000076715;1362
16;0.06698670000150742;1362
17;0.07094490000054066;1361
18;0.07506410000132746;1362
19;0.07889450000038778;1362
20;0.08258500000010827;1362
21;0.08663940000042203;1362
22;0.09090840000135358;1363
23;0.09500690000095346;1364
24;0.0987316999999166;1365
25;0.10175430000163033;1366
26;0.10572170000159531;1367
27;0.10931740000160062;1369
28;0.1123702000004414;1371
29;0.11550850000094215;1372
30;0.11840200000006007;1373
31;0.12150180000026012;1375
32;0.12427490000118269;1376
33;0.1273062000000209;1378
34;0.13042370000039227;1379
35;0.13342020000163757;1381
36;0.13644750000094064;1384
37;0.1391899000009289;1385
38;0.14232369999990624;1387
39;0.1453752000015811;1390
40;0.14823700000124518;1392
41;0.15133260000038717;1394
42;0.1542927000009513;1397
43;0.15725990000100865;1400
44;0.16040780000002997;1403
45;0.1635418000005302;1406
46;0.16634820000035688;1409
47;0.16935470000134956;1413
48;0.17235940000136907;1416
49;0.17537080000147398;1419
50;0.1783733000011125;1422
51;0.1814440000016475;1426
52;0.18436430000110704;1431
53;0.18736790000002657;1434
54;0.19042840000111028;1438
55;0.19335560000035912;1443
56;0.1964984000005643;1447
57;0.19936860000052548;1451
58;0.20233200000075158;1455
59;0.20535580000068876;1459
60;0.20834950000062236;1464
61;0.21143300000039744;1469
62;0.21419440000136092;1474
63;0.21747350000077859;1479
64;0.2203392999999778;1484
65;0.22347780000018247;1489
66;0.22634090000065044;1494
67;0.2292883999998594;1499
68;0.23226720000093337;1505
69;0.2353689999999915;1510
70;0.23853220000091824;1516
71;0.24137190000146802;1522
72;0.24417490000087128;1527
73;0.24725990000115416;1533
74;0.2502827000007528;1538
75;0.2532436000001326;1544
76;0.256177100000059;1551
77;0.25921550000020943;1556
78;0.26218770000014047;1562
79;0.2652114000011352;1569
80;0.26814830000148504;1576
81;0.271117400001458;1583
82;0.2731487000000925;1589
83;0.27668700000140234;1594
84;0.27940120000130264;1602
85;0.2821867000002385;1609
86;0.28529140000136977;1616
87;0.28839940000034403;1623
88;0.2912320000014006;1631
89;0.29561110000031476;1638
90;0.29921250000006694;1648
91;0.30259360000127344;1656
92;0.3063990000009653;1665
93;0.3091309999999794;1673
94;0.31222990000060236;1680
95;0.31529500000033295;1689
96;0.3181389000001218;1696
97;0.3213242000001628;1704
98;0.32422180000139633;1712
99;0.3263520000000426;1718
100;0.3294259000012971;1725
101;0.3321882000000187;1733
102;0.33552589999999327;1742
103;0.33811730000161333;1751
104;0.34033160000035423;1757
105;0.34326990000045043;1763
106;0.34636740000132704;1772
107;0.3492991000002803;1780
108;0.3524399000016274;1789
109;0.3552612000003137;1798
110;0.35845900000094844;1806
111;0.36134950000086974;1816
112;0.3641274000001431;1823
113;0.36608909999995376;1831
114;0.3680889000006573;1837
115;0.3712552000015421;1845
116;0.3730991000011272;1853
117;0.3763059000011708;1860
118;0.3791608000010456;1870
119;0.3822048000001814;1878
120;0.3851724000014656;1887
121;0.3873194000007061;1896
122;0.3901900000000751;1903
123;0.39321470000140835;1912
124;0.3963097000014386;1923
125;0.39952720000110276;1931
126;0.40235089999987395;1942
127;0.4053060000005644;1952
128;0.4084554000000935;1961
129;0.4113993999999366;1972
130;0.4141399000000092;1982
131;0.41718829999990703;1991
132;0.4203914000008808;2001
133;0.42332429999987653;2011
134;0.4262250000010681;2021
135;0.4293083000011393;2031
136;0.43234490000031656;2041
137;0.4354776000000129;2051
138;0.438336100000015;2062
139;0.4414714000013191;2071
140;0.4443373000012798;2083
141;0.44706030000088504;2091
142;0.4493443000010302;2100
143;0.4523349999999482;2108
144;0.45535130000098434;2119
145;0.4583540000003268;2129
146;0.4613457000014023;2139
147;0.4631174000005558;2148
148;0.46535790000052657;2154
149;0.46828850000019884;2163
150;0.4712911000005988;2174
151;0.4742879000004905;2185
152;0.4773527000015747;2196
153;0.48031860000082816;2205
154;0.48394630000075267;2215
155;0.4877857999999833;2231
156;0.49154170000110753;2244
157;0.4956932000004599;2257
158;0.49969420000161335;2272
159;0.5037674000013794;2286
160;0.5076873000016349;2300
161;0.5117297000015242;2314
162;0.5158913000013854;2329
163;0.5196542000012414;2344
164;0.5237887000002956;2358
165;0.5276755000013509;2372
166;0.5312566000011429;2388
167;0.5343693000013445;2399
168;0.5374860000010813;2410
169;0.5403031000005285;2420
170;0.5431765000012092;2431
171;0.5463039000005665;2441
172;0.5494983000007778;2450
173;0.5523570000004838;2463
174;0.5553444000015588;2473
175;0.558447299999898;2483
176;0.5613496000005398;2497
177;0.5641186000011658;2507
178;0.5673450000012963;2518
179;0.5704677000012452;2529
180;0.5733417000010377;2539
181;0.5763628000004246;2550
182;0.5793088000009448;2560
183;0.582344300000841;2570
184;0.5854724000000715;2581
185;0.5883351000011317;2594
186;0.5914714000009553;2603
187;0.5943419000013819;2614
188;0.5970862000012858;2625
189;0.6001785000007658;2634
190;0.6031251000003977;2645
191;0.6064648000010493;2655
192;0.6093489000013506;2667
193;0.6124859000010474;2677
194;0.6153469000000769;2688
195;0.6184474000001501;2698
196;0.6213416999999026;2710
197;0.6242766000013944;2720
198;0.6273899000007077;2729
199;0.6303459999999177;2739
200;0.6334700000006706;2749
201;0.6363426000007166;2761
202;0.6394718000010471;2770
203;0.6423425000011775;2782
204;0.6451464000001579;2790
205;0.6483564999998634;2801
206;0.6515118000006623;2811
207;0.6543851000005816;2823
208;0.6573490999999194;2832
209;0.6604642000002059;2840
210;0.6633541999999579;2853
211;0.6660908000012569;2861
212;0.6680618000009417;2870
213;0.6701830000001792;2876
214;0.6734344000014971;2884
215;0.676271700000143;2895
216;0.6792019000004075;2904
217;0.6811602000016137;2913
218;0.6843509999998787;2919
219;0.6874752000003355;2930
220;0.6903331000012258;2941
221;0.6934633000000758;2949
222;0.6963297000002058;2960
223;0.6991594999999506;2968
224;0.7020796000015253;2977
225;0.7053608000005624;2987
226;0.7083316000007471;2997
227;0.7114147000011144;3006
228;0.7141519000015251;3016
229;0.7163266000006843;3023
230;0.7195036000011896;3031
231;0.7222871000012674;3040
232;0.7252370000005612;3049
233;0.7284330000002228;3058
234;0.731232900001487;3069
235;0.734261500001594;3075
236;0.7372346000011021;3085
237;0.740281700000196;3094
238;0.743527600001471;3103
239;0.7471573000002536;3113
240;0.7501355000003969;3122
241;0.753109700001005;3130
242;0.75511490000099;3138
243;0.7580849000005401;3144
244;0.7613880000008066;3153
245;0.7641738000002078;3161
246;0.7674524000012752;3169
247;0.7704536000001099;3178
248;0.7734605000005104;3186
249;0.7764627000015025;3194
250;0.7794075000001612;3202
251;0.7824860000000626;3209
252;0.7854597000005015;3217
253;0.7884509000014077;3225
254;0.7914531000005809;3232
255;0.7944543000012345;3239
256;0.7971132000002399;3246
257;0.8004358000016509;3254
258;0.8034670000015467;3262
259;0.8064330000015616;3268
260;0.8094440000004397;3275
261;0.8124377000003733;3283
262;0.8154499000011128;3289
263;0.8184393999999884;3296
264;0.8214462000014464;3303
265;0.8244432999999844;3310
266;0.8271836000003532;3317
267;0.8301483000013832;3321
268;0.8331545000000915;3328
269;0.8352281000006769;3334
270;0.8380916000005527;3338
271;0.8414863000016339;3345
272;0.8443627000015113;3352
273;0.8471528999998554;3357
274;0.8504461000011361;3363
275;0.8535547000010411;3370
276;0.856195000000298;3376
277;0.8595298000000184;3381
278;0.8625397000014345;3386
279;0.8655459000001429;3392
280;0.8684901000015088;3397
281;0.8715023000004294;3402
282;0.874496000000363;3407
283;0.8775199000010616;3412
284;0.8812827000001562;3418
285;0.8844401000005746;3422
286;0.8874599000009766;3427
287;0.8904177000003983;3432
288;0.8934783000004245;3436
289;0.8964727000002313;3440
290;0.8994692000014766;3444
291;0.9024690000005648;3449
292;0.9054711000007956;3453
293;0.9084656000013638;3457
294;0.9111576000013883;3461
295;0.9130954000011116;3464
296;0.9161269000014727;3467
297;0.9190452000002551;3471
298;0.9210834000004979;3475
299;0.9230630000001838;3477
300;0.9250632000002952;3479
301;0.927014800001416;3481
302;0.9291022000015801;3483
303;0.931174800000008;3485
304;0.9330206000013277;3487
305;0.9350725000003877;3488
306;0.9370424000007915;3490
307;0.9389842000000499;3492
308;0.9411154000008537;3494
309;0.9431089000008797;3496
310;0.9451110000009066;3498
311;0.9470548000008421;3500
312;0.9490689000012935;3501
313;0.9510399999999208;3503
314;0.9530047000007471;3505
315;0.9550011000010272;3506
316;0.95703180000055;3508
317;0.9590654000003269;3509
318;0.9609608000009757;3511
319;0.9629672000010032;3512
320;0.9650550000005751;3513
321;0.9671372000011615;3515
322;0.9691378000006807;3516
323;0.9711352000012994;3517
324;0.9730605000004289;3518
325;0.975127200001225;3518
326;0.9770360000002256;3519
327;0.9790537000008044;3520
328;0.9811275000010937;3521
329;0.9830362000011519;3521
330;0.9849524000001111;3522
331;0.987072600000829;3522
332;0.990122600000177;3523
333;0.9920959999999468;3524
334;0.994123500000569;3525
335;0.9960521000011795;3525
336;0.9981166000015946;3526
337;1.0000603000007686;3526
338;1.0019695999999385;3527
339;1.0039590000014869;3527
340;1.0059794000007969;3527
341;1.0079276000014943;3528
342;1.0099903000009363;3528
343;1.0119580999999016;3528
344;1.0139980000003561;3528
345;1.0159834000005503;3528
346;1.0181175000016083;3528
347;1.0200509000005695;3528
348;1.0220832000013615;3528
349;1.024073700000372;3528
350;1.0260929000014585;3528
351;1.0280954000008933;3528
352;1.031133400001636;3528
353;1.033122100001492;3527
354;1.035012899999856;3526
355;1.0370846000005258;3526
356;1.0390909000016109;3525
357;1.0410661000005348;3525
358;1.0431232000009913;3524
359;1.04608780000126;3523
360;1.0480599000002258;3522
361;1.0500681000012264;3522
362;1.0521380999998655;3521
363;1.0541076000008616;3520
364;1.0560706000014761;3519
365;1.0580845000004047;3518
366;1.0600383000000875;3517
367;1.062019800001508;3516
368;1.0640405000012834;3515
369;1.0660825000013574;3514
370;1.0680705000013404;3513
371;1.0700319000006857;3512
372;1.072100400000636;3510
373;1.074113500000749;3509
374;1.0760846000011952;3508
375;1.078099199999997;3506
376;1.0799277000005532;3505
377;1.0819845000005444;3503
378;1.084067600000708;3502
379;1.0860697000007349;3500
380;1.0880873000005522;3498
381;1.0901173000002018;3496
382;1.0931046000005153;3494
383;1.096132700000453;3491
384;1.0980601999999635;3489
385;1.1001372000009724;3487
386;1.1020127000010689;3485
387;1.1040507000016078;3483
388;1.106035000000702;3481
389;1.1080181000015727;3479
390;1.1100242000011349;3476
391;1.1121216000010463;3474
392;1.115144200000941;3472
393;1.1171069000010903;3468
394;1.1191329000012047;3466
395;1.1211343000013585;3464
396;1.1231350000016391;3461
397;1.1251411000012013;3459
398;1.127154800000426;3457
399;1.1301128000013705;3454
400;1.1321669000008114;3450
401;1.1351632000005338;3447
402;1.1381604000016523;3443
403;1.1402283000006719;3439
404;1.1432030000014493;3436
405;1.1451150000011694;3432
406;1.1471076000016183;3429
407;1.1491455000013957;3426
408;1.1510937000002741;3423
409;1.1531126000008953;3420
410;1.1550894000010885;3417
411;1.157120900001246;3414
412;1.1590520000008837;3410
413;1.1611449000010907;3407
414;1.1631848000015452;3404
415;1.1650817000008828;3401
416;1.167070600000443;3397
417;1.1690499000014825;3394
418;1.171092900000076;3390
419;1.1730944999999338;3387
420;1.1751383999999234;3383
421;1.1771134999999049;3380
422;1.1791535000011208;3376
423;1.181163799999922;3372
424;1.1831419000009191;3368
425;1.1851505000013276;3365
426;1.1871296000008442;3361
427;1.1891275000016321;3357
428;1.1911052000014024;3353
429;1.1941600999998627;3349
430;1.196070600000894;3343
431;1.1983708000007027;3338
432;1.2013225000009697;3334
433;1.2042330000003858;3327
434;1.2072693999998592;3321
435;1.2103063000013208;3314
436;1.2133035000006203;3308
437;1.2163170000003447;3302
438;1.2194044000007125;3295
439;1.222705300000598;3288
440;1.2257196999998996;3281
441;1.229659000000538;3273
442;1.232540800001516;3265
443;1.2353200000015931;3257
444;1.2383158000011463;3250
445;1.2413216000004468;3243
446;1.2443257000013546;3235
447;1.2484972000002017;3226
448;1.2514520000004268;3218
449;1.2544881000012538;3210
450;1.2574985000010201;3203
451;1.2605352000009589;3196
452;1.2635847000001377;3188
453;1.2664812000002712;3181
454;1.26947360000122;3174
455;1.2723400000013498;3166
456;1.275212399999873;3159
457;1.2784629000016139;3151
458;1.281456500000786;3141
459;1.284406200000376;3133
460;1.2874503000002733;3125
461;1.290448200001265;3116
462;1.2934795000001031;3107
463;1.2964815000013914;3098
464;1.2994693000000552;3091
465;1.302475800001048;3082
466;1.3054677000000083;3073
467;1.3084675000009156;3064
468;1.3113139000015508;3055
469;1.314150400001381;3047
470;1.3174558999999135;3038
471;1.3204517000012856;3028
472;1.3234519000016007;3020
473;1.326472400000057;3010
474;1.3292839000005188;3002
475;1.3323446000013064;2993
476;1.3353633000006084;2983
477;1.338364700000966;2974
478;1.3417822000010347;2963
479;1.3457926999999472;2952
480;1.348656400001346;2941
481;1.352727600000435;2930
482;1.3567320000001928;2917
483;1.3607304000015574;2905
484;1.3642404000001989;2892
485;1.3661122000012256;2882
486;1.3681277000014234;2876
487;1.3701117000000522;2870
488;1.3725394000011875;2864
489;1.3755251000002318;2854
490;1.3781523000016023;2845
491;1.3813949000013963;2837
492;1.3843174000012368;2826
493;1.3873192000010022;2816
494;1.3903224000005139;2806
495;1.3933114999999816;2795
496;1.396353400001317;2785
497;1.3993460000001505;2776
498;1.4023489000010159;2764
499;1.4053555999998935;2754
500;1.408344200001011;2744
501;1.4113512000003539;2733
502;1.4143683000002056;2723
503;1.4173640000008163;2713
504;1.420347799999945;2702
505;1.4233609000002616;2691
506;1.4263482000005752;2681
507;1.4293508999999176;2670
508;1.4323490000006132;2660
509;1.4353510000000824;2649
510;1.4383613000009063;2639
511;1.4411218000004737;2628
512;1.4443313000010676;2617
513;1.44710060000034;2606
514;1.4503288000014436;2596
515;1.4533613000003243;2585
516;1.456374400000641;2574
517;1.4593429000015021;2564
518;1.4623319000002084;2553
519;1.4653393000007782;2543
520;1.4683344000004581;2532
521;1.4713326000000961;2521
522;1.4743417000008776;2511
523;1.477333600001657;2500
524;1.4801800000004732;2490
525;1.4833363000016107;2479
526;1.4863338000013755;2468
527;1.4893381000001682;2458
528;1.492309600000226;2447
529;1.4953341000000364;2436
530;1.4983043000011094;2425
531;1.5013128999999026;2415
532;1.5042214000004606;2404
533;1.5072048000001814;2393
534;1.5101950000007491;2383
535;1.5136171000012837;2372
536;1.5166100000005827;2359
537;1.5206007000015234;2348
538;1.5243475000006583;2335
539;1.5286740000010468;2320
540;1.5327358000013191;2304
541;1.536262400000851;2291
542;1.5397443000001658;2280
543;1.5436650999999983;2265
544;1.5465177000005497;2253
545;1.5496281000014278;2244
546;1.552154100001644;2233
547;1.5556390000001556;2223
548;1.559757200000604;2210
549;1.5625948000015342;2197
550;1.5657081000008475;2188
551;1.5685889000014868;2177
552;1.5712461000002804;2166
553;1.574661800001195;2157
554;1.5787181000014243;2145
555;1.582645100001173;2131
556;1.5867527000009432;2117
557;1.5906713000003947;2104
558;1.5936999000005017;2091
559;1.5973350000003848;2079
560;1.6012664000008954;2066
561;1.604478500001278;2055
562;1.6071583000011742;2044
563;1.6103538000006665;2035
564;1.6132524000004196;2023
565;1.6164977000007639;2016
566;1.6192628000007971;2005
567;1.6221963000007236;1995
568;1.6253109000008408;1986
569;1.628198300000804;1977
570;1.6312668999999005;1966
571;1.6342635000000882;1956
572;1.6373711000014737;1947
573;1.640155400000367;1937
574;1.6432597000002716;1927
575;1.6462164000004122;1918
576;1.6493847000001551;1909
577;1.6522699000015564;1899
578;1.655183599999873;1891
579;1.6572850000011385;1882
580;1.6601922000008926;1874
581;1.663185400000657;1866
582;1.6663845000002766;1857
583;1.669477100000222;1846
584;1.6722378000013123;1837
585;1.675358700000288;1829
586;1.6781844000015553;1820
587;1.6813790000014706;1811
588;1.684324600000764;1802
589;1.6871922999998787;1794
590;1.6894775000000664;1787
591;1.6923256000009133;1779
592;1.695221700001639;1771
593;1.6981785000007221;1763
594;1.7011287000004813;1754
595;1.7042355000012321;1746
596;1.707177700000102;1737
597;1.7102750000012747;1730
598;1.7132633000001078;1721
599;1.7161718000006658;1713
600;1.7192728000009083;1705
601;1.722143100001631;1697
602;1.7252609000006487;1689
603;1.7281511000001046;1682
604;1.7312527000012778;1674
605;1.7343530000016472;1667
606;1.7378205000004527;1660
607;1.741947300000902;1650
608;1.7453658000013093;1640
609;1.7492252000010922;1630
610;1.752429400001347;1624
611;1.7554436000009446;1616
612;1.7584991000003356;1610
613;1.7614928000002692;1602
614;1.7642618000008952;1595
615;1.7675390000003972;1588
616;1.771459400000822;1580
617;1.7745640000011917;1572
618;1.7782219000000623;1566
619;1.7812528000013117;1559
620;1.784250400000019;1552
621;1.7875808000007964;1546
622;1.7902430000012828;1540
623;1.7936367000002065;1535
624;1.7967977000007522;1528
625;1.7992518000010023;1522
626;1.8026423000010254;1518
627;1.8055433000008634;1512
628;1.8084867000015947;1506
629;1.8112347000005684;1501
630;1.814320500001486;1496
631;1.8173482000001968;1490
632;1.8203792000003887;1486
633;1.8234234000010474;1480
634;1.8266879000002518;1475
635;1.8304686000010406;1469
636;1.8332612000012887;1464
637;1.8363471000011486;1460
638;1.8397196000005351;1457
639;1.8437989000012749;1451
640;1.846648600001572;1446
641;1.849254100001417;1441
642;1.8522534000003361;1437
643;1.8552851000004011;1434
644;1.8582342000008794;1430
645;1.8611514000003808;1426
646;1.8630987000015011;1424
647;1.8651014000006398;1422
648;1.8671914000005927;1420
649;1.8692072000012558;1418
650;1.8711971000011545;1415
651;1.8731870999999956;1413
652;1.8766785000007076;1410
653;1.8805437999999413;1406
654;1.8846062000011443;1403
655;1.8887281000006624;1400
656;1.8923854000004212;1397
657;1.8954585999999836;1394
658;1.8983054000000266;1392
659;1.9016179000009288;1391
660;1.9045980999999301;1388
661;1.9072683000013058;1387
662;1.9103552000015043;1384
663;1.9131781000014598;1383
664;1.9154680000010558;1381
665;1.9183267000007618;1381
666;1.921453400000246;1380
667;1.9242606000007072;1378
668;1.9273732000001473;1377
669;1.9300715000008495;1376
670;1.9323096000007354;1375
671;1.934042300001238;1374
672;1.9362775000008696;1374
673;1.9393478000001778;1373
674;1.942309000000023;1372
675;1.9453598000000056;1371
676;1.9481879000013578;1371
677;1.9503226000015275;1371
678;1.953063300001304;1371
679;1.9554480000006151;1371
680;1.958282000001418;1371
681;1.961466200000359;1371
682;1.9640612000002875;1372
683;1.96632370000043;1372
684;1.9683623000000807;1372
685;1.9712452000003395;1372
686;1.9740770000007615;1373
687;1.976331100000607;1373
688;1.97929269999986;1374
689;1.981130200001644;1375
690;1.9833456000014849;1375
691;1.98625500000162;1376
692;1.9880595000013273;1377
693;1.9900587000011;1377
694;1.9922965000005206;1378
695;1.9953660000010132;1380
696;1.9981854000016028;1381
697;2.0011031000012736;1383
698;2.003115400000752;1384
699;2.0052528000014718;1385
700;2.007179600001109;1387
701;2.0091099000001122;1388
702;2.011245100000451;1390
703;2.013086900000417;1391
704;2.0150111000002653;1393
705;2.017275400001381;1394
706;2.020279100001062;1396
707;2.0221460000011575;1398
708;2.024195600000894;1400
709;2.0272972000002483;1402
710;2.0294723000006343;1404
711;2.0423017000011896;1406
712;2.064818599999853;1432
713;2.0682539000008546;1447
714;2.0701508000001922;1450
715;2.0722211000011157;1453
716;2.0754539000008663;1456
