;time;amplitude
0;0.002981700001328136;2428
1;0.006165599999803817;2427
2;0.009361899999930756;2426
3;0.012000000000625732;2426
4;0.015065300000060233;2425
5;0.018094400000336464;2424
6;0.021016900000176975;2423
7;0.023912900000141235;2423
8;0.02702769999996235;2422
9;0.029983500000525964;2422
10;0.03297460000067076;2421
11;0.03590430000076594;2420
12;0.03890769999998156;2419
13;0.042027400000733905;2418
14;0.044856100001197774;2417
15;0.04822210000020277;2417
16;0.05137500000091677;2416
17;0.05522480000036012;2415
18;0.059058500000901404;2414
19;0.06198510000103852;2413
20;0.06527090000054159;2412
21;0.06830079999963345;2412
22;0.0708202000005258;2411
23;0.07397000000128173;2410
24;0.0770038000009663;2410
25;0.08015789999990375;2409
26;0.08306609999999637;2408
27;0.08623330000045826;2407
28;0.0888016000008065;2406
29;0.09175180000056571;2405
30;0.09502470000006724;2405
31;0.09802090000084718;2404
32;0.10109399999964808;2403
33;0.10382100000060746;2403
34;0.10585429999991902;2402
35;0.10898590000033437;2401
36;0.1117976000005001;2401
37;0.11493020000125398;2400
38;0.11798790000102599;2399
39;0.12081240000043181;2398
40;0.12409070000103384;2397
41;0.12715770000068005;2396
42;0.129987300000721;2395
43;0.13320670000030077;2395
44;0.13601980000021285;2394
45;0.13981170000079146;2393
46;0.14184899999963818;2393
47;0.14498579999963113;2392
48;0.14800190000096336;2392
49;0.15099069999996573;2391
50;0.15388069999971776;2390
51;0.15703150000081223;2390
52;0.16018299999996088;2389
53;0.1630432000001747;2389
54;0.1660202000002755;2388
55;0.16904670000076294;2387
56;0.17188780000105908;2387
57;0.17487210000035702;2386
58;0.1769653000010294;2385
59;0.17983290000120178;2385
60;0.18293830000038724;2385
61;0.18586540000069363;2384
62;0.18779650000033143;2383
63;0.19099650000134716;2383
64;0.1937697000012122;2382
65;0.19585780000124942;2382
66;0.19786399999975401;2382
67;0.19982440000057977;2382
68;0.2018796000011207;2381
69;0.20382020000033663;2381
70;0.20580250000057276;2381
71;0.20889920000081474;2380
72;0.21188980000079027;2380
73;0.2153825000004872;2380
74;0.21946050000042305;2379
75;0.22170770000047924;2378
76;0.22489860000132467;2377
77;0.22791940000024624;2377
78;0.2309653000011167;2376
79;0.23429370000121708;2376
80;0.23807740000120248;2375
81;0.24139780000041355;2374
82;0.24426149999999325;2374
83;0.24721510000017588;2374
84;0.25020709999989776;2373
85;0.25299720000111847;2372
86;0.2561247000012372;2372
87;0.25897790000090026;2372
88;0.2617143000006763;2372
89;0.26496360000055574;2371
90;0.26800850000108767;2371
91;0.2707234999998036;2370
92;0.27282000000013795;2370
93;0.27481840000109514;2370
94;0.2768104000006133;2370
95;0.27880240000013146;2369
96;0.2807693000013387;2369
97;0.2838312000003498;2369
98;0.28581599999961327;2369
99;0.2878785000011703;2369
100;0.28985330000068643;2368
101;0.2928471000013815;2368
102;0.29478220000055444;2368
103;0.29678080000121554;2368
104;0.2987800999999308;2368
105;0.30077259999961825;2368
106;0.30380350000086764;2368
107;0.30585010000140755;2368
108;0.30799389999992854;2368
109;0.3115109999998822;2368
110;0.31532049999987066;2367
111;0.31808900000032736;2367
112;0.32088670000121056;2367
113;0.3239644000004773;2367
114;0.3269741000003705;2367
115;0.3298434000007546;2366
116;0.33305990000008023;2366
117;0.3360123000002204;2366
118;0.3391434000004665;2366
119;0.3420127000008506;2366
120;0.34514390000003914;2366
121;0.3480187000004662;2366
122;0.35100640000018757;2365
123;0.3537818000004336;2365
124;0.357008400000268;2365
125;0.3599854000003688;2365
126;0.363000600000305;2365
127;0.3658469000001787;2365
128;0.36901159999979427;2364
129;0.3721394000003784;2364
130;0.37499730000126874;2364
131;0.37782830000105605;2364
132;0.38079649999963294;2364
133;0.3840113000005658;2364
134;0.38693310000053316;2364
135;0.39000620000115305;2364
136;0.3931370999998762;2364
137;0.39599509999970905;2364
138;0.3991377000002103;2364
139;0.4020037999998749;2364
140;0.4049149000002217;2364
141;0.40805730000101903;2365
142;0.4110074000000168;2365
143;0.4141343000010238;2365
144;0.4170143999999709;2365
145;0.4201396000007662;2365
146;0.42300369999975374;2366
147;0.42599060000065947;2366
148;0.4288589999996475;2367
149;0.43080600000030245;2367
150;0.4337826999999379;2367
151;0.43577949999962584;2368
152;0.4377997999999934;2368
153;0.43985609999981534;2368
154;0.44188260000009905;2369
155;0.4449433999998291;2369
156;0.44804629999998724;2369
157;0.4509713000006741;2370
158;0.4537223000006634;2370
159;0.4559625000001688;2370
160;0.45915550000063377;2370
161;0.46210140000039246;2371
162;0.4649728000003961;2371
163;0.4681326000008994;2372
164;0.4708597999997437;2372
165;0.4741340000000491;2372
166;0.47701100000085717;2373
167;0.4797779000000446;2373
168;0.48308410000026925;2374
169;0.48593930000060936;2374
170;0.4888380000011239;2374
171;0.49199620000035793;2375
172;0.4950211000013951;2375
173;0.49798310000005586;2375
174;0.5011537999998836;2375
175;0.5037685000006604;2375
176;0.5058631000010791;2376
177;0.5091103000013391;2376
178;0.5119794000002003;2377
179;0.5150744000002305;2377
180;0.518006800000876;2377
181;0.5208703000007517;2378
182;0.5238218000013148;2378
183;0.5269969000000856;2379
184;0.5301455000007991;2379
185;0.5330623999998352;2379
186;0.5361659999998665;2380
187;0.5387975000012375;2380
188;0.5409092999998393;2381
189;0.5439581000009639;2381
190;0.546970200000942;2382
191;0.5499297000005754;2382
192;0.553125700000237;2383
193;0.5574348000009195;2383
194;0.560270699999819;2384
195;0.5643472000010661;2385
196;0.5670442000009643;2385
197;0.5698662000013428;2386
198;0.5718768000006094;2386
199;0.5750039000013203;2387
200;0.5778218000014022;2388
201;0.5807725000013306;2388
202;0.582735900001353;2389
203;0.5847298000007868;2389
204;0.5866533000007621;2389
205;0.5887665000009292;2390
206;0.590803600000072;2391
207;0.5927506999996695;2391
208;0.5948438000013994;2391
209;0.5968711000004987;2392
210;0.6002406000006886;2392
211;0.6045267999998032;2394
212;0.608305300000211;2395
213;0.6124902000010479;2396
214;0.616605500001242;2397
215;0.6202929000010045;2398
216;0.622862600001099;2399
217;0.6263675999998668;2400
218;0.6304017000002204;2401
219;0.6343979000012041;2402
220;0.6379343000007793;2403
221;0.6413222999999562;2403
222;0.6443429999999353;2404
223;0.6472334999998566;2405
224;0.6504670000012993;2406
225;0.6533292000003712;2406
226;0.6558497000005445;2407
227;0.6592166000009456;2407
228;0.6622427000002062;2408
229;0.6662181000010605;2409
230;0.6692080000011629;2410
231;0.672191900001053;2410
232;0.6750668000004225;2411
233;0.6781215999999404;2412
234;0.6811139000001276;2413
235;0.6841727999999421;2414
236;0.6867823000011413;2414
237;0.6891443000004074;2414
238;0.6921345999999176;2415
239;0.6950957000008202;2416
240;0.6981460000006336;2416
241;0.7011422000014136;2417
242;0.703906000000643;2417
243;0.7068701999996847;2418
244;0.7090711000000738;2419
245;0.7119246000002022;2420
246;0.7149074000008113;2420
247;0.7179587000009633;2421
248;0.7207854999996925;2421
249;0.7240316999996139;2423
250;0.7271416000003228;2424
251;0.7301698999999644;2425
252;0.7331666000009136;2426
253;0.7361911999996664;2426
254;0.7388842000000295;2427
255;0.740826900000684;2428
256;0.7429582000004302;2429
257;0.7459944000001997;2429
258;0.7489811000014015;2430
259;0.7518326999997953;2431
260;0.7550401999997121;2431
261;0.7581028000004153;2432
262;0.7611059000009845;2433
263;0.7641008000009606;2433
264;0.7671193000005587;2434
265;0.7700252000013279;2435
266;0.7727869000009377;2435
267;0.7759476999999606;2436
268;0.7788407999996707;2437
269;0.782421500000055;2437
270;0.7865030000011757;2439
271;0.7893319000013435;2440
272;0.7935292000001937;2441
273;0.7970067000005656;2442
274;0.8003029999999853;2442
275;0.8033666999999696;2443
276;0.8062833000003593;2444
277;0.8093779999999242;2444
278;0.8133795000012469;2445
279;0.8173693000007916;2446
280;0.8202123999999458;2447
281;0.8234310000007099;2448
282;0.8262713000003714;2449
283;0.8293621000011626;2450
284;0.83203820000017;2451
285;0.8349493000005168;2451
286;0.8379932000007102;2452
287;0.8411875000001601;2453
288;0.8440084000012575;2454
289;0.8469901000007667;2454
290;0.8500390999997762;2455
291;0.8530201000012312;2456
292;0.8560314000005746;2456
293;0.8590217000000848;2457
294;0.8618395000012242;2458
295;0.8648157999996329;2458
296;0.8680125999999291;2458
297;0.8708296000004339;2459
298;0.8740209999996296;2460
299;0.8770055000004504;2460
300;0.8800432999996701;2461
301;0.8828329000007216;2462
302;0.8849420000005921;2462
303;0.8879546000007394;2463
304;0.8907777000003989;2463
305;0.892983900001127;2463
306;0.8957146000011562;2464
307;0.8979964000009204;2464
308;0.9009829000005993;2464
309;0.9037731000007625;2464
310;0.9059995999996318;2465
311;0.9091988000000129;2465
312;0.91186800000105;2466
313;0.9148588000007294;2467
314;0.9168361000010918;2467
315;0.9188501000007818;2467
316;0.9207050000004529;2468
317;0.9228770000008808;2468
318;0.9259015999996336;2468
319;0.9288754999997764;2469
320;0.9308011000011902;2469
321;0.9339916000008088;2470
322;0.9367445000007137;2470
323;0.9387793000005331;2471
324;0.941983300001084;2471
325;0.9449499000002106;2472
326;0.9479858000013337;2472
327;0.9510843000007299;2473
328;0.9538517000000866;2473
329;0.9557149000011123;2473
330;0.9577160999997432;2473
331;0.9597602000012557;2473
332;0.9617713000006916;2473
333;0.9647224000000278;2474
334;0.9666542000013578;2474
335;0.9688741999998456;2474
336;0.9719351000003371;2474
337;0.9750678000000335;2475
338;0.9778497999996034;2475
339;0.9798045000006823;2476
340;0.9828522999996494;2476
341;0.9859434999998484;2476
342;0.9890274999997928;2476
343;0.9920620000011695;2476
344;0.9950538000011875;2476
345;0.9981637000000774;2477
346;1.001104300001316;2477
347;1.0038242000009632;2477
348;1.0071310000002995;2478
349;1.0101279000009526;2478
350;1.013122199999998;2478
351;1.0159122000004572;2478
352;1.0189301000009436;2478
353;1.0225206000013713;2478
354;1.0265075999996043;2478
355;1.0305270999997447;2478
356;1.0343903000011778;2478
357;1.0382217000005767;2479
358;1.0411937999997463;2479
359;1.0451881999997568;2479
360;1.0492217999999411;2478
361;1.0520914000007906;2479
362;1.0549640000008367;2479
363;1.058076200000869;2479
364;1.0609433999998146;2479
365;1.0639565000001312;2478
366;1.0667708000000857;2478
367;1.068942200001402;2478
368;1.0719344000008277;2477
369;1.075529200001256;2477
370;1.0795128000008845;2477
371;1.0832663000001048;2476
372;1.086315200000172;2476
373;1.0887959000010596;2476
374;1.0907827999999427;2476
375;1.092830600000525;2476
376;1.0961679000010918;2476
377;1.100161800000933;2476
378;1.1029959999996208;2476
379;1.106020900000658;2475
380;1.1091703000001871;2475
381;1.1119784000002255;2474
382;1.114975800001048;2474
383;1.1179673000006005;2474
384;1.12075139999979;2474
385;1.1237331000011181;2474
386;1.1259468999996898;2474
387;1.128930800001399;2473
388;1.1318459000012808;2473
389;1.13548609999998;2473
390;1.1394388999997318;2472
391;1.1430466000001616;2472
392;1.1458736000004137;2472
393;1.1491346000002522;2471
394;1.1519881000003807;2470
395;1.1548672999997507;2470
396;1.1567537000009906;2470
397;1.1589163999997254;2469
398;1.160706399999981;2469
399;1.1627146000009816;2469
400;1.1647551000005478;2468
401;1.1668726000007155;2468
402;1.1709164000003511;2468
403;1.173886599999605;2467
404;1.176049100000455;2466
405;1.1791190000003553;2466
406;1.1821142000007967;2466
407;1.1851053000009415;2465
408;1.1877897000013036;2465
409;1.1900832999999693;2464
410;1.1930793000010453;2464
411;1.196087100001023;2463
412;1.1990910000004078;2462
413;1.2021334000000934;2462
414;1.2050193000013678;2462
415;1.2079530000009981;2461
416;1.2109557000003406;2461
417;1.2139643000009528;2460
418;1.2169700000013108;2460
419;1.2198243000002549;2459
420;1.2218377999997756;2459
421;1.2238804999997228;2459
422;1.2271362000010413;2459
423;1.2301385999999184;2458
424;1.233136300001206;2458
425;1.2361329000013939;2457
426;1.2391539000000193;2457
427;1.2421450000001641;2456
428;1.2451067000001785;2456
429;1.2481351000005816;2455
430;1.2511107999998785;2455
431;1.2537857000006625;2454
432;1.2570805000013934;2454
433;1.2600627000010718;2453
434;1.263076799999908;2453
435;1.2661153000008198;2452
436;1.2687783000001218;2452
437;1.2708911000008811;2451
438;1.2744307000011759;2451
439;1.2784404000012728;2450
440;1.282435600000099;2449
441;1.2864501000003656;2448
442;1.289368800000375;2448
443;1.2934369000013248;2447
444;1.297427700001208;2446
445;1.3013525000005757;2445
446;1.3054019999999582;2444
447;1.309453300000314;2443
448;1.3134356000009575;2442
449;1.3174338000007992;2441
450;1.3209975999998278;2440
451;1.3243849000009504;2439
452;1.3284469999998691;2439
453;1.3320192999999563;2437
454;1.335405499999979;2436
455;1.3394445000012638;2436
456;1.343442600000344;2435
457;1.3474380000006931;2434
458;1.349937000000864;2433
459;1.3534294000000955;2432
460;1.357448500000828;2431
461;1.3614350999996532;2430
462;1.3657687000013539;2428
463;1.3691460999998526;2427
464;1.3723624000012933;2426
465;1.3764350000001286;2425
466;1.3804145000012795;2424
467;1.3844387000008282;2424
468;1.3883495999998559;2423
469;1.3924403000000893;2422
470;1.3964293999997608;2421
471;1.400439400000323;2419
472;1.4040063000011287;2418
473;1.4073724999998376;2417
474;1.4108544000009715;2417
475;1.4138973000008264;2416
476;1.4173829999999725;2415
477;1.4209776000006968;2414
478;1.4244216000006418;2413
479;1.4284334000003582;2412
480;1.4324319000006653;2411
481;1.4364544000000024;2410
482;1.439384000001155;2409
483;1.4434204999997746;2408
484;1.4474320999997872;2407
485;1.4514236000013625;2406
486;1.4554263999998511;2405
487;1.459433199999694;2404
488;1.4634375000005093;2403
489;1.4674494000009872;2401
490;1.4710047000007762;2400
491;1.4739347000013368;2400
492;1.477400600000692;2399
493;1.4814439000001585;2398
494;1.4854395000002114;2397
495;1.488162800000282;2395
496;1.491365699999733;2395
497;1.4954381000006833;2394
498;1.4994241000003967;2393
499;1.5034663000005821;2392
500;1.5058920999999827;2392
501;1.5083592000009958;2391
502;1.5124308000013116;2391
503;1.5164414000009856;2390
504;1.520200200000545;2389
505;1.5233801000013045;2389
506;1.5269879000006767;2388
507;1.5299678999999742;2387
508;1.5327729000000545;2387
509;1.53485290000026;2386
510;1.5368295000007492;2386
511;1.5398299000007682;2385
512;1.542153899999903;2385
513;1.545091300000422;2384
514;1.5481134000001475;2384
515;1.5511177999997017;2384
516;1.5538985000002867;2383
517;1.5570115999998961;2382
518;1.5600407000001724;2382
519;1.5632433999999193;2381
520;1.566216400000485;2381
521;1.5691806000013457;2380
522;1.5719116000000213;2379
523;1.5754145000009885;2379
524;1.5793850000009115;2378
525;1.5833859000013035;2377
526;1.5869956000005914;2376
527;1.5898279000011826;2376
528;1.5931956000003993;2376
529;1.5962482000013551;2375
530;1.5991800000010699;2374
531;1.6021792999999889;2374
532;1.6049106000009488;2374
533;1.606849499999953;2373
534;1.609935200000109;2373
535;1.6133902000001399;2373
536;1.6174282000010862;2372
537;1.6209336000010808;2372
538;1.6239999999997963;2371
539;1.6271704000009777;2371
540;1.630155900000318;2371
541;1.6331678000005923;2370
542;1.6361790000009933;2370
543;1.639278500000728;2370
544;1.6422192999998515;2369
545;1.645143800000369;2369
546;1.6481961000008596;2369
547;1.6512135000011767;2369
548;1.6539346999998088;2368
549;1.6573846000010235;2368
550;1.6614652000007482;2368
551;1.6654670999996597;2368
552;1.669444500001191;2368
553;1.6723947000009503;2367
554;1.676437199999782;2367
555;1.6804611999996268;2367
556;1.6844645000001037;2366
557;1.68824400000085;2366
558;1.6913726000002498;2366
559;1.6943685000005644;2366
560;1.6973992000002909;2366
561;1.7004599000010785;2366
562;1.7040009000011196;2366
563;1.706864300000234;2366
564;1.7101497000003292;2366
565;1.713123200001064;2366
566;1.7161250000008295;2366
567;1.7191767000003892;2366
568;1.7220223000003898;2366
569;1.725070800001049;2366
570;1.7281050000001414;2366
571;1.7310964000007516;2366
572;1.734204200000022;2366
573;1.7367776999999478;2366
574;1.740027400001054;2366
575;1.7430165000005218;2366
576;1.7460504000009678;2366
577;1.749032100000477;2366
578;1.7519936999997299;2367
579;1.7549830000007205;2366
580;1.7581965000008495;2366
581;1.761225000000195;2366
582;1.764225599999918;2367
583;1.7678880000003119;2366
584;1.770040000001245;2367
585;1.771814900001118;2367
586;1.7737919000010152;2367
587;1.7757674000004045;2367
588;1.7781592999999702;2367
589;1.7808955000000424;2367
590;1.7828544000003603;2368
591;1.7848599000008107;2368
592;1.7868318000000727;2368
593;1.7898346000001766;2368
594;1.7917944000000716;2368
595;1.793811999999889;2368
596;1.7957411999996111;2368
597;1.7978206999996473;2368
598;1.7998530000004394;2369
599;1.8018441000003804;2369
600;1.8038298999999824;2369
601;1.8068072000005486;2369
602;1.8091713000012533;2370
603;1.8129903999997623;2370
604;1.8159606999997777;2371
605;1.8188970999999583;2371
606;1.8219927999998617;2371
607;1.8252365000007558;2371
608;1.8281205000002956;2372
609;1.8311510000003182;2372
610;1.8340722000011738;2373
611;1.836912000000666;2373
612;1.8402153000006365;2374
613;1.84319510000023;2375
614;1.8461831000004167;2375
615;1.8492157000000589;2375
616;1.8521591000007902;2375
617;1.85527010000078;2376
618;1.858221100001174;2376
619;1.8612207000005583;2377
620;1.8642245999999432;2377
621;1.8672242000011465;2377
622;1.8698239000004833;2378
623;1.873143800001344;2378
624;1.8761359000000084;2379
625;1.8791215000001102;2379
626;1.8821509999997943;2379
627;1.8851837000001979;2380
628;1.8881739000007656;2381
629;1.891172200001165;2381
630;1.8941697000009299;2381
631;1.8971419999998034;2382
632;1.8998332000010123;2383
633;1.9017369000011968;2383
634;1.9037466999998287;2384
635;1.905800900000031;2384
636;1.9090931999999157;2384
637;1.9118099999996048;2384
638;1.913831100000607;2385
639;1.91583940000055;2385
640;1.9177037999997992;2385
641;1.9197657000004256;2386
642;1.9219169999996666;2386
643;1.9238205000001471;2386
644;1.9258145000003424;2387
645;1.927822700001343;2387
646;1.9308430000000953;2388
647;1.9328497000005882;2388
648;1.9348399000009522;2389
649;1.9368713000003481;2389
650;1.939849200000026;2390
651;1.9418206999998802;2390
652;1.9448652999999467;2391
653;1.9468023000008543;2391
654;1.948857900000803;2391
655;1.9507654000008188;2392
656;1.9538959000001341;2392
657;1.9570053000006737;2393
658;1.9600166000000172;2393
659;1.9629175999998552;2394
660;1.966064300000653;2395
661;1.9690604000006715;2396
662;1.9710308000012446;2396
663;1.9739618000003247;2397
664;1.9769434000008914;2398
665;1.979870099999971;2398
666;1.982950700001311;2399
667;1.9859940000005736;2400
668;1.9892342000002827;2401
669;1.9935560000012629;2402
670;1.9975993000007293;2403
671;2.001474300001064;2404
672;2.0049381000007997;2405
673;2.008175200000551;2406
674;2.011096700000053;2406
675;2.0141744000011386;2407
676;2.017184800000905;2408
677;2.0198550000004616;2409
678;2.023184100000435;2409
679;2.0261824000008346;2411
680;2.029185299999881;2411
681;2.0321868999999424;2412
682;2.0352218999996694;2412
683;2.038207400000829;2413
684;2.0408106000013504;2413
685;2.0428343000003224;2414
686;2.0448216000004322;2414
687;2.0467925000011746;2415
688;2.0490967000005185;2415
689;2.0518815000014;2416
690;2.0538154000005306;2417
691;2.056856900000639;2418
692;2.0599920000004204;2418
693;2.0628728000010597;2419
694;2.0648479999999836;2420
695;2.0668763000012405;2420
696;2.0688476000013907;2420
697;2.0708574000000226;2421
698;2.0738877000003413;2422
699;2.075879600000917;2422
700;2.0778569000012794;2423
701;2.079741200001081;2423
702;2.0817172000006394;2423
703;2.08373550000033;2424
704;2.085715400000481;2424
705;2.087759300000471;2425
706;2.090010900001289;2426
707;2.0926902999999584;2427
708;2.0947061000006215;2427
709;2.096669500000644;2428
710;2.0986737000002904;2428
711;2.1006529000005685;2429
712;2.1026595000003;2429
713;2.1048614000010275;2430
714;2.106656500000099;2430
715;2.108657500000845;2431
716;2.1106534999998985;2431
