;time;amplitude
0;0.003692800000862917;2354
1;0.007956400000693975;2354
2;0.011457000000518747;2353
3;0.014436000001296634;2352
4;0.01798880000023928;2351
5;0.02195399999982328;2350
6;0.026799999999639113;2350
7;0.030657799999971758;2349
8;0.03498020000006363;2349
9;0.039939199999935227;2348
10;0.04395380000096338;2347
11;0.04901319999953557;2346
12;0.05398539999987406;2346
13;0.058586400000422145;2345
14;0.06194580000010319;2345
15;0.06598510000003444;2344
16;0.07084260000010545;2343
17;0.07495800000106101;2343
18;0.07953530000122555;2342
19;0.08391490000030899;2341
20;0.08793929999956163;2341
21;0.09205570000085572;2340
22;0.0966327000005549;2340
23;0.10100869999951101;2340
24;0.10498519999964628;2339
25;0.10895200000049954;2339
26;0.1127876999998989;2339
27;0.11693650000052003;2338
28;0.12056490000031772;2337
29;0.1248833999998169;2337
30;0.1287334999997256;2336
31;0.13157930000124907;2336
32;0.13575740000123915;2336
33;0.13978280000083032;2336
34;0.14377950000016426;2335
35;0.14770549999957439;2335
36;0.15173560000039288;2334
37;0.1557702000009158;2334
38;0.1597698000005039;2334
39;0.16333029999987048;2334
40;0.16671130000031553;2333
41;0.1707693999996991;2332
42;0.17476650000025984;2332
43;0.17876559999967867;2332
44;0.1827768000002834;2332
45;0.18677890000071784;2331
46;0.1907974000005197;2331
47;0.19478049999997893;2331
48;0.197557900000902;2331
49;0.2017894000000524;2331
50;0.2057732000012038;2330
51;0.20977190000121482;2330
52;0.21329490000061924;2329
53;0.21728210000037507;2329
54;0.22022870000000694;2329
55;0.22375900000042748;2329
56;0.22776630000043951;2329
57;0.2314609000004566;2329
58;0.23469400000067253;2328
59;0.2384877000004053;2329
60;0.24175470000045607;2328
61;0.24555669999972451;2329
62;0.24832140000034997;2329
63;0.2515712000003987;2328
64;0.2555491000002803;2328
65;0.25965069999983825;2328
66;0.263296299999638;2328
67;0.2665452000001096;2328
68;0.27084110000032524;2328
69;0.27485020000131044;2327
70;0.279377700000623;2327
71;0.2822453000007954;2327
72;0.28539490000002843;2327
73;0.2883964000011474;2328
74;0.2916132000009384;2327
75;0.2955426000007719;2327
76;0.29856590000053984;2326
77;0.3026509999999689;2326
78;0.3066601999998966;2326
79;0.31063499999982014;2326
80;0.3146209999995335;2326
81;0.3186568000000989;2325
82;0.32266189999972994;2326
83;0.32638240000051155;2326
84;0.32934709999972256;2326
85;0.33260150000023714;2326
86;0.33662900000126683;2325
87;0.34063290000085544;2325
88;0.34356839999963995;2325
89;0.34754700000121375;2325
90;0.3516321000006428;2325
91;0.35563100000035774;2325
92;0.35956939999960014;2325
93;0.36326050000025134;2325
94;0.3666075000001001;2326
95;0.370694100000037;2326
96;0.3746339999997872;2326
97;0.37763149999955203;2327
98;0.38162240000019665;2327
99;0.3856754999997065;2326
100;0.38938620000044466;2326
101;0.3925694999998086;2327
102;0.3963547000003018;2327
103;0.39956940000047325;2327
104;0.40257560000100057;2327
105;0.40532100000018545;2326
106;0.40985010000076727;2327
107;0.4133326000010129;2327
108;0.41666190000069037;2328
109;0.42080280000118364;2328
110;0.4247973000001366;2328
111;0.4288606999998592;2329
112;0.4327778999995644;2329
113;0.4363610000000335;2329
114;0.43969060000017635;2329
115;0.443771199999901;2329
116;0.4476923000001989;2329
117;0.451747000000978;2329
118;0.45452060000025085;2329
119;0.45876119999957155;2329
120;0.4628154000001814;2329
121;0.4666588000000047;2329
122;0.46921240000119724;2329
123;0.47266190000118513;2329
124;0.4756570000008651;2329
125;0.4787173000004259;2329
126;0.4824117000007391;2329
127;0.48582689999966533;2329
128;0.489771100001235;2328
129;0.49381759999960195;2328
130;0.49624650000077963;2328
131;0.4997787000011158;2328
132;0.5036968000003981;2328
133;0.50785150000047;2328
134;0.511761400000978;2328
135;0.5158654999995633;2328
136;0.5198063000007096;2328
137;0.5238409000012325;2328
138;0.5283803000002081;2328
139;0.5318048000008275;2328
140;0.5357177000005322;2328
141;0.5397491000003356;2328
142;0.5437547000001359;2328
143;0.5477123000000574;2328
144;0.5517548999996507;2328
145;0.5557484000000841;2328
146;0.5597778000010294;2329
147;0.5632920999996713;2329
148;0.5667379000005894;2329
149;0.570768900000985;2329
150;0.5743646000009903;2329
151;0.5788150999997015;2329
152;0.58279980000043;2329
153;0.5867711999999301;2329
154;0.5907411999996839;2329
155;0.5934842000006029;2330
156;0.5977247999999236;2329
157;0.6017654999996012;2330
158;0.6057498999998643;2329
159;0.6097685000004276;2330
160;0.6133136000007653;2330
161;0.6177960000004532;2330
162;0.621782100000928;2330
163;0.6257791999996698;2330
164;0.6293342999997549;2330
165;0.6327092999999877;2330
166;0.6365318000007392;2330
167;0.6408678000007058;2329
168;0.6448122000001604;2330
169;0.6488513000003877;2330
170;0.6536491999995633;2330
171;0.6578561999995145;2330
172;0.6614011000001483;2330
173;0.6648229000002175;2330
174;0.668891999999687;2331
175;0.6728025000011257;2330
176;0.6768693000012718;2330
177;0.6803251000001183;2330
178;0.6844085000011546;2330
179;0.6887629000011657;2330
180;0.6927745000011782;2330
181;0.6963924000010593;2330
182;0.6994160000012926;2330
183;0.7027267000012216;2330
184;0.7067807000003086;2330
185;0.7107776000011654;2330
186;0.7142934000003152;2331
187;0.7172123000000283;2331
188;0.7202181000011478;2331
189;0.7233253000013065;2331
190;0.727708000000348;2331
191;0.7312622999997984;2330
192;0.7346864999999525;2331
193;0.7386728000001312;2331
194;0.742678500000693;2331
195;0.7462546999995538;2331
196;0.7495147000008728;2331
197;0.752475900000718;2332
198;0.7554485000000568;2331
199;0.7585242000004655;2332
200;0.7614733000009437;2332
201;0.7645826999996643;2332
202;0.7687194000009185;2332
203;0.7727147000005061;2333
204;0.7767162000000098;2333
205;0.7805859000000055;2333
206;0.7847187999996095;2333
207;0.7876390000001265;2332
208;0.7917140000008658;2332
209;0.7957122000007075;2332
210;0.7986362000010558;2332
211;0.8027175999995961;2333
212;0.8067033000006631;2332
213;0.8107202999999572;2333
214;0.8146348999998736;2333
215;0.8187113000003592;2333
216;0.8227010000009614;2333
217;0.8267181999999593;2333
218;0.8306456999998773;2333
219;0.8347169999997277;2332
220;0.83872060000067;2332
221;0.8427307000001747;2332
222;0.8462963000001764;2332
223;0.8507370999996056;2332
224;0.8547011000009661;2332
225;0.8587258999996266;2332
226;0.8625845000005938;2333
227;0.8656502000012551;2333
228;0.8697064000007231;2332
229;0.8737134000002698;2332
230;0.8766281999996863;2332
231;0.8806411000005028;2333
232;0.8847098999995069;2333
233;0.8887156000000687;2332
234;0.8926294000011694;2333
235;0.896270999999615;2333
236;0.8996547999995528;2333
237;0.9037183000000368;2333
238;0.9073366000011447;2334
239;0.9117298000001028;2334
240;0.9146440000004077;2334
241;0.9187194000005547;2335
242;0.9221254000003682;2335
243;0.925683299999946;2335
244;0.9292758000010508;2336
245;0.9326330000003509;2336
246;0.9367240000010497;2335
247;0.9396412000005512;2335
248;0.9437071000011201;2336
249;0.9476776000010432;2336
250;0.9517106000002968;2336
251;0.9552287999995315;2336
252;0.9586933000009594;2336
253;0.9625625000007858;2337
254;0.966731599999548;2337
255;0.970706699999937;2337
256;0.9747105000005831;2337
257;0.978715999999622;2337
258;0.982725500000015;2337
259;0.9866457000007358;2337
260;0.9907130999999936;2338
261;0.994696900001145;2338
262;0.9976609000004828;2338
263;1.0016711999996915;2338
264;1.0041632000011305;2338
265;1.0076564999999391;2338
266;1.011655399999654;2338
267;1.014658000000054;2339
268;1.0187141000005795;2339
269;1.0227016000008007;2339
270;1.026710300000559;2339
271;1.0306362000010267;2340
272;1.0347127000004548;2340
273;1.0387068;2340
274;1.042720499999632;2340
275;1.0462740000002668;2341
276;1.0496650000004593;2341
277;1.0537144000008993;2341
278;1.0577050000010786;2341
279;1.0606545000009646;2341
280;1.0647069999995438;2341
281;1.0687132000002748;2341
282;1.0727043000006233;2341
283;1.0767164000008052;2342
284;1.080638800000088;2342
285;1.084674100000484;2342
286;1.088713799999823;2342
287;1.092715800001315;2342
288;1.0962426000005507;2342
289;1.0996390000000247;2342
290;1.1037150000011025;2343
291;1.1077027000010276;2343
292;1.111717800000406;2343
293;1.1146422000001621;2344
294;1.118709399999716;2344
295;1.1223024999999325;2344
296;1.1267265000005864;2345
297;1.130647100000715;2345
298;1.1347184000005655;2345
299;1.1386667999995552;2346
300;1.141661400000885;2347
301;1.145775799999683;2347
302;1.1497276000009151;2347
303;1.1532753000010416;2347
304;1.15654110000105;2348
305;1.1595140999997966;2348
306;1.1624203000010311;2348
307;1.1655270000010205;2349
308;1.1685259000005317;2349
309;1.1715161000010994;2349
310;1.1743569000009302;2349
311;1.1773195000005217;2349
312;1.1803424999998242;2349
313;1.1832806000002165;2349
314;1.1862961999995605;2349
315;1.1892710000010993;2350
316;1.1923349000007875;2350
317;1.195302600001014;2351
318;1.1983172000000195;2350
319;1.2012316000000283;2351
320;1.2042959000009432;2350
321;1.2072926000000734;2351
322;1.2102926000006846;2351
323;1.213302100000874;2351
324;1.2162612000010995;2352
325;1.2191268000005948;2352
326;1.2210620000005292;2352
327;1.224312899999859;2352
328;1.2272927000012714;2353
329;1.2301574000011897;2353
330;1.2333042999998725;2353
331;1.2361072000003333;2354
332;1.2393009999996139;2354
333;1.2423049000008177;2354
334;1.2452766000005795;2355
335;1.2481453000000329;2355
336;1.2511396000008972;2355
337;1.254151000001002;2356
338;1.2571415000002162;2356
339;1.260180200000832;2356
340;1.2632754000005662;2356
341;1.266247999999905;2357
342;1.2690172000002349;2358
343;1.2712583000011364;2358
344;1.2742261000003055;2359
345;1.2772186000001966;2359
346;1.2802381000001333;2359
347;1.2831359000010707;2359
348;1.2851153000010527;2360
349;1.2883904999998776;2360
350;1.2927018000009411;2360
351;1.2961713000004238;2361
352;1.2994273000003886;2361
353;1.30242250000083;2361
354;1.3052380999997695;2362
355;1.3082324000006338;2362
356;1.311096000001271;2362
357;1.3148379000012937;2363
358;1.3186212000000523;2364
359;1.322675999999774;2364
360;1.326616100001047;2364
361;1.3306821000005584;2365
362;1.3346848000001046;2365
363;1.3386986000004981;2366
364;1.3425311999999394;2366
365;1.3457601999998587;2366
366;1.3496861000003264;2367
367;1.3536918999998306;2368
368;1.3580309000008128;2369
369;1.3616375000001426;2369
370;1.364681400000336;2370
371;1.3687055000009423;2370
372;1.3726734000010765;2371
373;1.375604700000622;2372
374;1.3784563000008347;2372
375;1.381413099999918;2372
376;1.3844036999998934;2373
377;1.3872176000004401;2373
378;1.390227900001264;2373
379;1.3932289000003948;2374
380;1.3961006999998062;2375
381;1.3998071000005439;2376
382;1.403798999999708;2377
383;1.4067396999998891;2377
384;1.4104919000001246;2378
385;1.4130779000006441;2378
386;1.416417000000365;2378
387;1.419413400000849;2379
388;1.4224300000005314;2379
389;1.4252599000010377;2380
390;1.4282517999999982;2380
391;1.4312148000008165;2381
392;1.4344452000004821;2381
393;1.4374518000004173;2382
394;1.4404549000009865;2382
395;1.4435243000007176;2382
396;1.4475660999996762;2383
397;1.4516946000003372;2383
398;1.4556308000010176;2383
399;1.4601247000009607;2384
400;1.4636348000003636;2385
401;1.4679644000007102;2386
402;1.4715611999999965;2386
403;1.476101500000368;2387
404;1.4796794000012596;2388
405;1.4836778999997478;2388
406;1.4880470000007335;2389
407;1.4919824999997218;2389
408;1.4960221000001184;2390
409;1.500892500000191;2391
410;1.5049177000000782;2391
411;1.5088494999999966;2393
412;1.5126469999995606;2393
413;1.5164340999999695;2394
414;1.5196085999996285;2395
415;1.5240038000010827;2396
416;1.5279831999996532;2397
417;1.5319441000010556;2398
418;1.5359160999996675;2398
419;1.5399243000010756;2399
420;1.544021800000337;2400
421;1.5475084000008792;2400
422;1.5504847000011068;2400
423;1.5536769000009372;2401
424;1.557651299999634;2402
425;1.5614764000001742;2402
426;1.5645007000002806;2403
427;1.567576100000224;2403
428;1.5720256000004156;2404
429;1.5770350000002509;2405
430;1.5819449999999051;2406
431;1.585911699999997;2406
432;1.5899539000001823;2407
433;1.5936706000011327;2408
434;1.5978484999995999;2408
435;1.601986499999839;2409
436;1.60598519999985;2410
437;1.6094881999997597;2410
438;1.6134134000003542;2411
439;1.6180076000000554;2411
440;1.6219766000012896;2413
441;1.625973600001089;2413
442;1.6294178999996802;2414
443;1.6339931000002252;2414
444;1.6379742000008264;2415
445;1.6419772999997804;2416
446;1.6459666000009747;2417
447;1.649920199999542;2418
448;1.6539056000001437;2418
449;1.6579868000007991;2419
450;1.6620190000012371;2420
451;1.6670326000003115;2420
452;1.670978500000274;2421
453;1.674914200000785;2422
454;1.6788654000010865;2423
455;1.6829226999998355;2423
456;1.6868957999995473;2424
457;1.6904998999998497;2425
458;1.693473900000754;2425
459;1.6964160000006814;2426
460;1.7010112000007211;2426
461;1.7049786999996286;2428
462;1.7089629000001878;2429
463;1.7125780999995186;2429
464;1.7170294999996258;2430
465;1.7214381000012509;2431
466;1.7243254000004526;2432
467;1.7273230999999214;2432
468;1.730496399999538;2433
469;1.7337208000008104;2433
470;1.737925900000846;2434
471;1.7429712000011932;2435
472;1.7463217000004079;2435
473;1.7507282999995368;2436
474;1.7547371000000567;2437
475;1.7588558000006742;2437
476;1.7626037000009092;2438
477;1.7669550000009622;2439
478;1.7708800000000338;2440
479;1.7749820000008185;2440
480;1.7790970000005473;2441
481;1.7824584000009054;2441
482;1.786747699999978;2442
483;1.791015000000698;2443
484;1.794744200000423;2443
485;1.7984919999998965;2443
486;1.8016107000003103;2444
487;1.8059907000006206;2444
488;1.8099505999998655;2445
489;1.8149850000008882;2446
490;1.8189867000000959;2447
491;1.8229682000001048;2447
492;1.8263610000012704;2448
493;1.8294177999996464;2448
494;1.8338707000002614;2449
495;1.8378570000004402;2450
496;1.8419356000013067;2450
497;1.845756500000789;2451
498;1.8498292000003858;2452
499;1.8538163000011991;2453
500;1.8577208999995491;2454
501;1.8618193000002066;2454
502;1.865827800000261;2455
503;1.8698057000001427;2456
504;1.8733951000012894;2457
505;1.8762205000002723;2457
506;1.8792346000009275;2458
507;1.8828001000001677;2458
508;1.8865727000011248;2459
509;1.8902513000011822;2460
510;1.893764700000247;2461
511;1.8977740000009362;2461
512;1.901811200001248;2462
513;1.9053153000004386;2462
514;1.908474900001238;2463
515;1.9122784000010142;2464
516;1.915717300000324;2465
517;1.920109800001228;2465
518;1.9248076000003493;2466
519;1.9288612000000285;2467
520;1.932803800000329;2467
521;1.936240799999723;2468
522;1.9398065000004863;2469
523;1.9438948000006349;2469
524;1.947752500000206;2470
525;1.9517183000007208;2471
526;1.9557973000009952;2471
527;1.9598089999999502;2471
528;1.9633690000009665;2472
529;1.9668414999996457;2473
530;1.9703047000002698;2473
531;1.9737562999998772;2474
532;1.9777874000010343;2474
533;1.9818262999997387;2475
534;1.9858175999997911;2475
535;1.989809900000182;2476
536;1.9938062000001082;2477
537;1.9977625999999873;2478
538;2.0013099999996484;2478
539;2.0042575000006764;2478
540;2.007372400001259;2478
541;2.0102352000012615;2479
542;2.013144900000043;2479
543;2.0149961999995867;2479
544;2.0170481000004656;2480
545;2.0189879999998084;2480
546;2.0210196000007272;2480
547;2.024074400000245;2480
548;2.0259358000002976;2480
549;2.0279170000012527;2481
550;2.029936599999928;2482
551;2.0321100000001024;2482
552;2.035104599999613;2482
553;2.0381319999996776;2482
554;2.0400453000002017;2483
555;2.0420696000001044;2483
556;2.045067900000504;2483
557;2.048040800000308;2484
558;2.050033600000461;2484
559;2.0520198000012897;2484
560;2.0540981000012835;2484
561;2.0571553999998287;2484
562;2.0601313000006485;2485
563;2.063194600001225;2485
564;2.066171399999803;2485
565;2.0691495000010036;2485
566;2.072233099999721;2485
567;2.075181199999861;2486
568;2.0781595000007655;2487
569;2.080173800000921;2488
570;2.0831725999996706;2488
571;2.0862120000001596;2488
572;2.089174400000047;2489
573;2.091278100000636;2489
574;2.094127300000764;2490
575;2.096170200000415;2490
576;2.098205800000869;2490
577;2.1009802000007767;2491
578;2.1031216999999742;2491
579;2.1050793000013073;2491
580;2.1072954000010213;2491
581;2.110212400000819;2492
582;2.1132974000011018;2492
583;2.116367300001002;2492
584;2.119380000000092;2493
585;2.1223676999998133;2493
586;2.1255782000007457;2494
587;2.128255800000261;2494
588;2.1313262000003306;2495
589;2.1343764000012015;2495
590;2.1373411000004126;2495
591;2.1403573000006872;2496
592;2.1433653000003687;2496
593;2.146363800000472;2496
594;2.14934280000125;2497
595;2.1523448999996617;2497
596;2.155352400000993;2497
597;2.158358500000759;2498
598;2.161361399999805;2498
599;2.1643376000010903;2498
600;2.167327999999543;2499
601;2.1703350999996474;2499
602;2.1731508000011672;2499
603;2.176339600000574;2499
604;2.179154600000402;2500
605;2.1823347999998077;2500
606;2.1854368000003888;2500
607;2.1884145000003628;2500
608;2.19145860000026;2500
609;2.194429500001206;2501
610;2.1974220000010973;2502
611;2.2003784000007727;2501
612;2.2034308000002056;2502
613;2.2063892999995005;2502
614;2.2094178999996075;2503
615;2.212097800000265;2503
616;2.215433999999732;2503
617;2.218411300000298;2503
618;2.2211427000002004;2503
619;2.22301619999962;2504
620;2.225179000000935;2504
621;2.228066100000433;2504
622;2.230165799999668;2504
623;2.2320620000009512;2504
624;2.2340388000011444;2504
625;2.2360048000009556;2505
626;2.237993099999585;2505
627;2.2410493999996106;2505
628;2.24305860000095;2505
629;2.2449923000003764;2506
630;2.2470786000012595;2506
631;2.24906910000027;2506
632;2.251223100000061;2506
633;2.254253900000549;2506
634;2.2572949000004883;2506
635;2.2605118000010407;2507
636;2.2632919999996375;2507
637;2.2664282000005187;2507
638;2.2694246000010025;2507
639;2.2724314000006416;2507
640;2.2754325000005338;2508
641;2.2783952000008867;2508
642;2.281431100000191;2508
643;2.2844034000008833;2508
644;2.287401999999929;2508
645;2.2904263000000356;2509
646;2.293398600000728;2509
647;2.296425200000158;2509
648;2.2993997000012314;2509
649;2.3023984000010387;2509
650;2.305408800000805;2509
651;2.3083877000008215;2510
652;2.3114342000008037;2510
653;2.314404500000819;2510
654;2.317386800001259;2511
655;2.320403100000476;2510
656;2.3234119999997347;2511
657;2.3260688000009395;2511
658;2.3291463000005024;2512
659;2.332146200000352;2512
660;2.335236000000805;2512
661;2.338800600000468;2512
662;2.3423044000010123;2512
663;2.3455391000006784;2512
664;2.348658000000796;2512
665;2.3527339000011125;2513
666;2.3567134000004444;2513
667;2.3601995000008174;2514
668;2.3636512000011862;2514
669;2.36773119999998;2514
670;2.3717164999998204;2514
671;2.3746688999999606;2514
672;2.3787749000002805;2514
673;2.382725499999651;2514
674;2.3867203000008885;2514
675;2.390725900000689;2514
676;2.3947194000011223;2514
677;2.3976491000012174;2514
678;2.4017368000004353;2515
679;2.4053160000003118;2514
680;2.4086513000002014;2515
681;2.4123012000000017;2515
682;2.4156538999995973;2515
683;2.4197423000005074;2515
684;2.4237282000012783;2515
685;2.4277208000003156;2515
686;2.430493199999546;2515
687;2.4347360000010667;2515
688;2.438704300000609;2515
689;2.4427252000004955;2516
690;2.446244700000534;2515
691;2.449660700000095;2516
692;2.45365590000074;2516
693;2.4577258999997866;2516
694;2.461214099999779;2516
695;2.464641100001245;2516
696;2.4686679000005824;2516
697;2.471391000000949;2516
698;2.474390900000799;2516
699;2.4774474000005284;2516
700;2.4804175999997824;2516
701;2.4831439000008686;2516
702;2.486422699999821;2516
703;2.4894170999996277;2516
704;2.4924062000009144;2516
705;2.4952116000004025;2516
706;2.498383100000865;2515
707;2.5014140000002953;2515
708;2.5044078000009904;2515
709;2.50741410000046;2515
710;2.510420200000226;2515
711;2.5134205000013026;2515
712;2.5161901000010403;2516
713;2.5191838999999163;2516
714;2.52246120000018;2516
715;2.5254409999997733;2516
716;2.5284826999995857;2516
717;2.5314570000009553;2516
718;2.53445450000072;2516
719;2.537475600000107;2516
720;2.540440099999614;2516
