;time;amplitude
0;0.0038889000006747665;2450
1;0.007089599999744678;2451
2;0.010353300000133459;2452
3;0.014685000000099535;2453
4;0.018351200000324752;2454
5;0.021268600001349114;2455
6;0.024220799999966403;2455
7;0.02711700000145356;2456
8;0.030636400000730646;2457
9;0.03464239999993879;2457
10;0.03863890000138781;2458
11;0.04107620000104362;2460
12;0.0440667000002577;2461
13;0.047045500001331675;2461
14;0.0500956000014412;2462
15;0.053082500000527943;2463
16;0.05592670000078215;2463
17;0.059033800000179326;2464
18;0.06203509999977541;2465
19;0.06503100000008999;2465
20;0.06805060000078811;2466
21;0.07107840000026044;2467
22;0.0740352000011626;2468
23;0.07706979999966279;2468
24;0.08007890000044426;2469
25;0.08307020000029297;2469
26;0.08614959999977145;2470
27;0.08898229999977048;2470
28;0.09213160000035714;2471
29;0.09512540000105218;2471
30;0.09805100000085076;2471
31;0.10107070000049134;2472
32;0.10422560000006342;2473
33;0.10858830000142916;2473
34;0.1124443999997311;2474
35;0.11643809999986843;2474
36;0.11948560000018915;2475
37;0.12313370000083523;2476
38;0.12636680000105116;2476
39;0.1292890000004263;2477
40;0.13229020000107994;2478
41;0.13507180000124208;2478
42;0.1380847000000358;2479
43;0.14108570000098553;2479
44;0.1440880999998626;2479
45;0.1470870000011928;2480
46;0.15008570000100008;2480
47;0.15311889999975392;2480
48;0.15587500000037835;2481
49;0.15887590000056662;2481
50;0.1611019000010856;2481
51;0.16422910000073898;2482
52;0.16686959999969986;2483
53;0.17022720000022673;2483
54;0.17292270000143617;2483
55;0.17622900000060326;2483
56;0.17922030000045197;2484
57;0.18218900000101712;2484
58;0.18520859999989625;2484
59;0.1882249000009324;2485
60;0.19123360000048706;2485
61;0.19420370000079856;2485
62;0.1972014000002673;2485
63;0.2001713000008749;2485
64;0.20322289999967325;2485
65;0.20590290000109235;2484
66;0.20919669999966573;2484
67;0.21220650000032037;2485
68;0.21497660000022734;2485
69;0.21792939999977534;2485
70;0.22095360000093933;2486
71;0.22383700000136741;2485
72;0.22569389999989653;2486
73;0.22771020000072895;2486
74;0.22977580000042508;2485
75;0.23185280000143393;2486
76;0.2338612000003195;2486
77;0.23578810000071826;2486
78;0.23793389999991632;2485
79;0.2397930000006454;2485
80;0.24294089999966673;2486
81;0.2459649000011268;2485
82;0.2479163999996672;2486
83;0.25095300000066345;2485
84;0.25395340000068245;2485
85;0.25761440000133007;2485
86;0.26141050000114774;2485
87;0.2638010000009672;2485
88;0.265868300000875;2485
89;0.2694331000002421;2485
90;0.27300880000075267;2484
91;0.2764407000013307;2485
92;0.2791839000001346;2485
93;0.2821843000001536;2485
94;0.28517310000097496;2484
95;0.2881656000008661;2484
96;0.2912066999997478;2483
97;0.2950648000005458;2483
98;0.2982103000013012;2483
99;0.30122540000047593;2483
100;0.304229999999734;2482
101;0.30720260000089183;2482
102;0.3102039000004879;2482
103;0.31321180000122695;2482
104;0.3162062000010337;2482
105;0.31922690000101284;2482
106;0.3222334000001865;2481
107;0.32519870000032824;2481
108;0.328186700000515;2481
109;0.33118629999989935;2481
110;0.33421260000068287;2480
111;0.33719940000082715;2480
112;0.3400145000014163;2480
113;0.3431813000006514;2479
114;0.34618130000126257;2479
115;0.3491795000009006;2478
116;0.3522037000002456;2478
117;0.3552192000006471;2477
118;0.35817880000104196;2477
119;0.3612073000003875;2477
120;0.36419780000142055;2477
121;0.367185300001438;2476
122;0.3702061000003596;2476
123;0.3729113999997935;2475
124;0.3762001000013697;2475
125;0.37917300000117393;2475
126;0.3822048000001814;2475
127;0.38518070000100124;2474
128;0.38791200000014214;2473
129;0.3898934000008012;2473
130;0.39318249999996624;2472
131;0.3961245999998937;2471
132;0.3991340000011405;2470
133;0.4021568999996816;2470
134;0.4048949000007269;2470
135;0.40803109999978915;2469
136;0.41118770000139193;2468
137;0.4141869000013685;2468
138;0.41718159999982163;2467
139;0.4202070999999705;2467
140;0.4229547000013554;2467
141;0.42608560000007856;2466
142;0.4291107999997621;2465
143;0.43203879999964556;2465
144;0.4350673999997525;2463
145;0.4380653000007442;2463
146;0.44121199999972305;2462
147;0.44420760000139126;2462
148;0.447220500000185;2461
149;0.45159960000091814;2460
150;0.4556369000001723;2458
151;0.459526000000551;2457
152;0.4634616000003007;2457
153;0.4674465999996755;2456
154;0.47151409999969474;2455
155;0.4744322000005923;2454
156;0.47852140000031795;2453
157;0.4824607999998989;2453
158;0.48649029999978666;2452
159;0.4891595999997662;2451
160;0.49243850000129896;2450
161;0.49634770000011486;2449
162;0.5005264999999781;2448
163;0.504049600000144;2447
164;0.506983900000705;2446
165;0.509921700000632;2445
166;0.5131061000010959;2444
167;0.5160691000000952;2443
168;0.5191498000003776;2443
169;0.5220165999999153;2443
170;0.5250138000010338;2442
171;0.5284774000010657;2441
172;0.5324534000010317;2440
173;0.5364810999999463;2439
174;0.5402362000004359;2438
175;0.5442808999996487;2437
176;0.5472881000005145;2436
177;0.5513026000007812;2435
178;0.5542971000013495;2434
179;0.5572482000006858;2433
180;0.5604235000009794;2432
181;0.5632755000006;2431
182;0.5662522000002355;2431
183;0.5692326000007597;2430
184;0.5723975000000792;2429
185;0.5752307000002475;2428
186;0.5782300999999279;2427
187;0.5812323000009201;2426
188;0.5842265999999654;2426
189;0.5872329000012542;2425
190;0.5898687999997492;2424
191;0.5918825999997352;2423
192;0.5950315000009141;2422
193;0.598023500000636;2422
194;0.6012257000002137;2421
195;0.6042193000012048;2420
196;0.6072491000013542;2420
197;0.6102515000002313;2419
198;0.6132592000012664;2418
199;0.6162565000013274;2417
200;0.6189802000008058;2416
201;0.620806500000981;2415
202;0.623836200000369;2414
203;0.6258400000006077;2414
204;0.6288456000002043;2413
205;0.631944000000658;2412
206;0.6350684999997611;2411
207;0.6380864000002475;2410
208;0.641222000000198;2409
209;0.6440978999999061;2408
210;0.6471571000001859;2407
211;0.6501580000003742;2406
212;0.6531809000007343;2406
213;0.6558955000000424;2405
214;0.659161600000516;2404
215;0.6623116999999183;2402
216;0.6657328000001144;2401
217;0.6684129000004759;2400
218;0.6718856000006781;2399
219;0.6753681999998662;2399
220;0.6782947000010608;2398
221;0.6811133000010159;2396
222;0.6841151999997237;2396
223;0.687064100000498;2395
224;0.6899183000004996;2394
225;0.6918544000000111;2394
226;0.6938382999996975;2393
227;0.6972058999999717;2393
228;0.7002157000006264;2391
229;0.7032048000000941;2390
230;0.7059251000009681;2390
231;0.7092716000006476;2389
232;0.7121476000011171;2388
233;0.715151500000502;2387
234;0.7184448000007251;2387
235;0.7214386000014201;2386
236;0.7243068000007042;2385
237;0.727299199999834;2384
238;0.7302629000005254;2383
239;0.7333094000005076;2383
240;0.7362556999996741;2382
241;0.7389650000004622;2381
242;0.7422701000014058;2380
243;0.7452458000007027;2380
244;0.7482485000000452;2379
245;0.7512826000001951;2378
246;0.754265999999916;2377
247;0.7570389000011346;2377
248;0.7602262000000337;2376
249;0.7632224999997561;2375
250;0.7662312000011298;2374
251;0.7692189999997936;2374
252;0.7721450999997614;2373
253;0.7752302000008058;2373
254;0.778224700001374;2372
255;0.7812290000001667;2372
256;0.7841459000010218;2371
257;0.7870481999998447;2371
258;0.790230700000393;2370
259;0.793233300000793;2369
260;0.796220700000049;2368
261;0.7992234000012104;2368
262;0.8022056999998313;2368
263;0.8052208999997674;2367
264;0.8082020000001648;2366
265;0.8112219000013283;2366
266;0.8142146000009234;2365
267;0.8172159000005195;2365
268;0.8200781000014103;2364
269;0.8232227999997122;2364
270;0.826198700000532;2363
271;0.8290598000003229;2363
272;0.8322035000001051;2362
273;0.834919599999921;2362
274;0.8382166000010329;2361
275;0.8412155000005441;2361
276;0.8441789000007702;2360
277;0.847163600001295;2360
278;0.850220199999967;2360
279;0.8532004000007873;2359
280;0.8559296000003087;2359
281;0.8592172999997274;2359
282;0.8621757000000798;2358
283;0.865199500000017;2358
284;0.8678350999998656;2358
285;0.8698122000005242;2358
286;0.8720638000013423;2357
287;0.8738788000009663;2357
288;0.8758730999998079;2357
289;0.8779773000005662;2357
290;0.8799586000004638;2356
291;0.881959199999983;2356
292;0.8848940000007133;2356
293;0.8869578000012552;2356
294;0.8899156000006769;2356
295;0.8919139000008727;2355
296;0.8938561000013578;2355
297;0.8959353000009287;2355
298;0.8979102000012062;2355
299;0.90097600000081;2354
300;0.9029356999999436;2355
301;0.9049197000003915;2354
302;0.9069835000009334;2355
303;0.9099813000011636;2354
304;0.9119117000009282;2354
305;0.9138763999999355;2354
306;0.9158461000006355;2354
307;0.9179889000006369;2354
308;0.9209762999998929;2353
309;0.9228278000009595;2353
310;0.9259355000012874;2353
311;0.929317500000252;2353
312;0.932423899999776;2353
313;0.9363950000006298;2353
314;0.9389733000007254;2353
315;0.9423806000013428;2353
316;0.9452474000008806;2353
317;0.9482525000003079;2352
318;0.9520795999997063;2352
319;0.9552053000006708;2352
320;0.9584923000002163;2352
321;0.9624183000014455;2352
322;0.9664694000002783;2353
323;0.9704763000008825;2353
324;0.9739398000001529;2353
325;0.9774725000006583;2353
326;0.981476200000543;2353
327;0.9854665000002569;2352
328;0.989031300001443;2352
329;0.9924487000007503;2353
330;0.9965056000000914;2353
331;1.0002761000014289;2353
332;1.0032649000004312;2353
333;1.005953200001386;2352
334;1.009196000000884;2352
335;1.0122007000009035;2353
336;1.01519879999978;2352
337;1.0182189000006474;2353
338;1.021238799999992;2354
339;1.0242211000004318;2354
340;1.0272297999999864;2353
341;1.030222600000343;2353
342;1.0332290000005742;2353
343;1.0360790000013367;2353
344;1.0388746999997238;2353
345;1.0422309000005043;2354
346;1.045201900000393;2354
347;1.0482107999996515;2354
348;1.0512097999999241;2355
349;1.0542069000002812;2355
350;1.0572234999999637;2356
351;1.060227300000406;2356
352;1.0632111000013538;2356
353;1.0662091000012879;2357
354;1.0692164000010962;2357
355;1.072111200001018;2357
356;1.07521430000088;2358
357;1.078205200001321;2358
358;1.0812130000012985;2359
359;1.0850547999998525;2359
360;1.0882110000002285;2359
361;1.0912077000011777;2360
362;1.094207300000562;2360
363;1.097214500001428;2361
364;1.1002164000001358;2361
365;1.1032040000009147;2362
366;1.105994900000951;2362
367;1.1092107000004034;2363
368;1.112130100000286;2363
369;1.1149898000003304;2363
370;1.1179909000002226;2363
371;1.120987199999945;2364
372;1.1238260999998602;2364
373;1.1258248000012827;2364
374;1.127749600000243;2365
375;1.1298059000000649;2365
376;1.1318952000001445;2366
377;1.1337629000008747;2366
378;1.1369008000001486;2367
379;1.1388334000002942;2367
380;1.1408506000007037;2367
381;1.1428707000013674;2367
382;1.1448557000003348;2368
383;1.1468634000011662;2368
384;1.1489228999998886;2369
385;1.1507981000013388;2369
386;1.1528438000004826;2370
387;1.1547692000003735;2370
388;1.1567797000006976;2370
389;1.1587515000010171;2371
390;1.1607476000008319;2371
391;1.1628519000005326;2372
392;1.164899700001115;2372
393;1.1668980000013107;2373
394;1.1688988000005338;2373
395;1.1708631000001333;2373
396;1.1727993000004062;2374
397;1.1748421000011149;2374
398;1.176823300000251;2374
399;1.1788570000007894;2375
400;1.180899799999679;2375
401;1.1829071000011027;2375
402;1.1848578000008274;2376
403;1.1868721999999252;2376
404;1.1887975999998162;2377
405;1.1918697000000975;2378
406;1.1938348000003316;2378
407;1.195878000000448;2379
408;1.1978689000006852;2379
409;1.1998679999996966;2379
410;1.2017960000011954;2380
411;1.2038576000013563;2380
412;1.2058197000005748;2380
413;1.2078363000000536;2381
414;1.2098187999999936;2381
415;1.2118778000003658;2382
416;1.2138199000000895;2383
417;1.215820100000201;2384
418;1.2180939999998373;2384
419;1.2209266999998363;2384
420;1.2239587000003667;2385
421;1.2259460000004765;2385
422;1.2289565999999468;2386
423;1.2320242000005237;2387
424;1.235022000000754;2387
425;1.2380107000008138;2388
426;1.241499700001441;2389
427;1.24536530000114;2390
428;1.2483603000000585;2391
429;1.2511320000012347;2392
430;1.2539092000006349;2393
431;1.257087900001352;2394
432;1.2601142000003165;2395
433;1.263085399999909;2396
434;1.266112900000735;2396
435;1.2691665000002104;2397
436;1.2720955000004324;2398
437;1.27514119999978;2399
438;1.2781130000003031;2400
439;1.2811483000004955;2400
440;1.2839373000006162;2401
441;1.2871358000011242;2402
442;1.2901378000005934;2402
443;1.2931395000014163;2403
444;1.2962418000006437;2404
445;1.2990927000009833;2405
446;1.302228800001103;2406
447;1.3051771999998891;2407
448;1.3081882000005862;2407
449;1.3111933000000136;2408
450;1.3141768000004959;2409
451;1.3172028999997565;2410
452;1.3201889000010851;2411
453;1.323179799999707;2411
454;1.3261579000009078;2413
455;1.3289941000002727;2413
456;1.3319354000013846;2414
457;1.3338796999996703;2414
458;1.3358607000009215;2415
459;1.3379500999999436;2416
460;1.3399441000001389;2417
461;1.3430076000004192;2417
462;1.3459773000013229;2418
463;1.3489229000006162;2419
464;1.3509363000011945;2420
465;1.3529183999999077;2420
466;1.354899199999636;2421
467;1.35708859999977;2421
468;1.3600719000005483;2422
469;1.3629586000006384;2423
470;1.3649414000010438;2423
471;1.366904300000897;2424
472;1.368873800000074;2425
473;1.3720155999999406;2425
474;1.3748912999999447;2426
475;1.3769535000010364;2427
476;1.3789040999999997;2427
477;1.3809734000005847;2428
478;1.384200399999827;2429
479;1.3873474000010901;2429
480;1.3911521999998513;2431
481;1.3944413000008353;2432
482;1.3974883999999292;2433
483;1.4004682000013418;2433
484;1.4044962000007217;2434
485;1.4073007000006328;2436
486;1.4102782999998453;2437
487;1.4130720000011934;2438
488;1.4162355000007665;2439
489;1.4191220000011526;2439
490;1.4219575000006444;2440
491;1.4240656000001763;2441
492;1.4272126000014396;2441
493;1.4301714000011998;2443
494;1.4331851000006282;2443
495;1.436198700001114;2444
496;1.438852200000838;2445
497;1.440814900000987;2445
498;1.4430072000013752;2446
499;1.4459834999997838;2447
500;1.4480538000007073;2448
501;1.4509778000010556;2448
502;1.454029399999854;2449
503;1.4573794999996608;2450
504;1.4614791000003606;2451
505;1.4654798000010487;2452
506;1.469594700000016;2452
507;1.4729299999999057;2454
508;1.476304900001196;2454
509;1.4792618999999831;2455
510;1.4821216000000277;2456
511;1.4850612000009278;2456
512;1.4880325000012817;2457
513;1.4909225999999762;2458
514;1.4928110000000743;2459
515;1.4949071999999433;2460
516;1.498174199999994;2460
517;1.501173500000732;2461
518;1.5041995999999926;2462
519;1.5070507000000362;2462
520;1.5102685000001657;2463
521;1.5135009000005084;2464
522;1.5165028000010352;2465
523;1.5204864000006637;2466
524;1.5240535000011732;2467
525;1.5271131000008609;2468
526;1.5300638000007893;2468
527;1.5330785000005562;2469
528;1.5360746000005747;2470
529;1.538857100000314;2471
530;1.5408973000012338;2471
531;1.5429307000013068;2472
532;1.5461519000000408;2472
533;1.5491798000002746;2473
534;1.5522122000002128;2474
535;1.5550711000014417;2474
536;1.5580888000004052;2475
537;1.560913100000107;2475
538;1.562813600001391;2475
539;1.5648024000001897;2475
540;1.5668415000000095;2476
541;1.5688152000002447;2476
542;1.571086699999796;2476
543;1.5738767000002554;2477
544;1.5760366000013164;2477
545;1.5789430000004359;2477
546;1.5808598000003258;2478
547;1.583938900001158;2478
548;1.5859096000003774;2478
549;1.5878716000006534;2479
550;1.5901425000010931;2479
551;1.5927987000013673;2479
552;1.5948580000003858;2480
553;1.5967987000003632;2480
554;1.5987655999997514;2480
555;1.6008954999997513;2480
556;1.6038993000001938;2480
557;1.6059101999999257;2480
558;1.6089334000007511;2480
559;1.6109160000014526;2481
560;1.6129024000001664;2481
561;1.6149160000004485;2481
562;1.6169319000000542;2482
563;1.6200274000002537;2482
564;1.623061800000869;2482
565;1.6261388000002626;2482
566;1.6294209000006958;2482
567;1.6324228000012226;2482
568;1.6354172000010294;2483
569;1.6384678000013082;2483
570;1.642433600000004;2483
571;1.645416600000317;2484
572;1.647967900000367;2484
573;1.6502791000002617;2484
574;1.6532533000008698;2484
575;1.6559720000004745;2484
576;1.6591469000013603;2484
577;1.6620417000012822;2484
578;1.66507620000084;2485
579;1.6680663000006462;2484
580;1.6711585000011837;2485
581;1.6740671000006841;2485
582;1.677210699999705;2485
583;1.68019810000078;2486
584;1.6831029000004492;2486
585;1.6861171000000468;2486
586;1.6888491000008798;2486
587;1.690973100001429;2486
588;1.6931474000011804;2486
589;1.695872700000109;2486
590;1.6987989000008383;2486
591;1.7008063000012044;2486
592;1.7027496000009705;2486
593;1.704883800000971;2486
594;1.7068157000012434;2486
595;1.708903000000646;2486
596;1.7108736999998655;2486
597;1.713917200000651;2486
598;1.715940000000046;2486
599;1.7178141000003961;2486
600;1.7198852000001352;2486
601;1.7218611000007513;2486
602;1.7240266999997402;2486
603;1.726907600001141;2485
604;1.7288091000009445;2486
605;1.7308774000011908;2486
606;1.7327611000000616;2485
607;1.7348047000014049;2485
608;1.73688200000106;2485
609;1.7388566000008723;2484
610;1.7410232000001997;2484
611;1.7438094000008277;2484
612;1.7457900999997946;2484
613;1.7482577999999194;2484
614;1.7509277000008296;2484
615;1.752930300001026;2483
616;1.7549077000003308;2483
617;1.7579612000008638;2483
618;1.7614038000010623;2482
619;1.764366900000823;2482
620;1.767323000000033;2482
621;1.7712982000011834;2481
622;1.7742428000001382;2481
623;1.777256600000328;2481
624;1.779792200000884;2481
625;1.7818130000014207;2480
626;1.783788700000514;2481
627;1.7857923999999912;2480
628;1.7878700000001118;2480
629;1.7899061999996775;2480
630;1.7919145000014396;2479
631;1.793831400000272;2479
632;1.7962437000005593;2479
633;1.7989627000006294;2479
634;1.800910699999804;2478
635;1.8028960000010557;2478
636;1.804887600001166;2477
637;1.8070287000009557;2477
638;1.8099400999999489;2476
639;1.811878300000899;2476
640;1.8138424000007944;2476
641;1.8170690000006289;2476
642;1.8198762000010902;2475
643;1.8229909000001498;2475
644;1.8264286000012362;2474
645;1.8294130000012956;2474
646;1.8322865999998612;2473
647;1.8352829000014026;2472
648;1.8383186000010028;2472
649;1.840951899999709;2471
650;1.8429572000004555;2471
651;1.8449111999998422;2471
652;1.8470723999998881;2471
653;1.8501136000013503;2470
654;1.8531053000006068;2469
655;1.856020700000954;2468
656;1.8592475000004924;2468
657;1.8622085000006336;2467
658;1.865412600000127;2467
659;1.8684338000002754;2466
660;1.8722092999996676;2466
661;1.8751139000014518;2465
662;1.8778971000010642;2465
663;1.8811175000009825;2464
664;1.8841129000011279;2463
665;1.8871071000012307;2462
666;1.8899759000014456;2461
667;1.8918771000007837;2461
668;1.8941843000011431;2460
669;1.8972579000001133;2460
670;1.9002459000003;2459
671;1.903223799999978;2458
672;1.907443100000819;2458
673;1.9102215000002616;2457
674;1.913213200001337;2456
675;1.9162163000000874;2456
676;1.9192425000001094;2455
677;1.9218837000007625;2454
678;1.924103000001196;2454
679;1.9270881000011286;2453
680;1.9300617999997485;2453
681;1.9333244999997987;2452
682;1.9364179000003787;2451
683;1.9402047000003222;2451
684;1.94325949999984;2450
685;1.9462737000012567;2449
686;1.9492609000008088;2448
687;1.9533006000001478;2447
688;1.9560915000001842;2447
689;1.9588628000001336;2446
690;1.9612118000004557;2445
691;1.9640422000011313;2444
692;1.9667655000012019;2443
693;1.9688562999999704;2443
694;1.9708798000010574;2442
695;1.9728479000004882;2442
696;1.9747841999997036;2442
697;1.9768099000011716;2441
698;1.9788125000013679;2441
699;1.980860900001062;2440
700;1.9828527000008762;2440
701;1.984948400000576;2439
702;1.9879194000004645;2438
703;1.9900782000004256;2437
704;1.9928897999998298;2437
705;1.994913100001213;2436
706;1.9968908999999258;2436
707;1.9999029000009614;2435
708;2.0018923000006907;2434
709;2.0049056999996537;2433
710;2.007037400000627;2432
711;2.009947300000931;2432
712;2.011848899999677;2430
713;2.0138575000000856;2430
714;2.0159015000008367;2430
715;2.0179047000001447;2429
716;2.020959800000128;2428
717;2.022786499999711;2427
