;time;amplitude
0;0.004126600000745384;2423
1;0.008054899999478948;2423
2;0.012409000000843662;2423
3;0.017302800000834395;2422
4;0.022669600000881474;2422
5;0.027648700001009274;2421
6;0.03272839999954158;2421
7;0.03711549999934505;2420
8;0.041091200000664685;2419
9;0.04503640000075393;2419
10;0.048758299999462906;2418
11;0.05181579999953101;2417
12;0.05473329999949783;2417
13;0.057536700000127894;2416
14;0.06073420000029728;2416
15;0.06367730000056326;2416
16;0.0667395000000397;2415
17;0.06973540000035428;2415
18;0.07273650000024645;2415
19;0.07574000000022352;2414
20;0.07874050000100397;2414
21;0.08175060000030498;2414
22;0.08473960000083025;2413
23;0.08774090000042634;2413
24;0.09055160000025353;2413
25;0.0937448000004224;2412
26;0.09756039999956556;2412
27;0.10073750000083237;2411
28;0.10350880000078178;2411
29;0.10662430000047607;2410
30;0.10973920000105863;2410
31;0.11363519999940763;2409
32;0.11685930000021472;2409
33;0.11962499999935972;2408
34;0.12276650000057998;2408
35;0.12558130000070378;2408
36;0.12874190000002272;2408
37;0.13172320000012405;2407
38;0.13471279999976105;2407
39;0.137729500000205;2407
40;0.14048379999985627;2406
41;0.14360520000082033;2405
42;0.14668780000101833;2405
43;0.14968059999955585;2405
44;0.15268339999965974;2404
45;0.1556682999998884;2404
46;0.1586065999999846;2404
47;0.16167119999954593;2404
48;0.16467069999998785;2403
49;0.16765599999962433;2403
50;0.17065589999947406;2402
51;0.17351699999926495;2402
52;0.17667869999968389;2402
53;0.17985829999997804;2402
54;0.18419449999964854;2402
55;0.1879382999995869;2401
56;0.19189560000086203;2401
57;0.19480250000015076;2401
58;0.1976544000008289;2401
59;0.2007047999995848;2401
60;0.20362000000022817;2401
61;0.20667859999957727;2401
62;0.20971000000099593;2401
63;0.21270840000033786;2401
64;0.2157043999995949;2401
65;0.2187367999995331;2401
66;0.22146470000006957;2401
67;0.22470419999990554;2401
68;0.22770130000026256;2401
69;0.23073549999935494;2401
70;0.2337081000005128;2401
71;0.23663020000094548;2401
72;0.23966979999931937;2401
73;0.24272650000057183;2401
74;0.24570370000037656;2402
75;0.24872490000052494;2402
76;0.251702400000795;2402
77;0.25509860000056506;2402
78;0.2592094999999972;2402
79;0.26304540000091947;2402
80;0.2672848000001977;2402
81;0.2725532000004023;2402
82;0.2775101999995968;2402
83;0.2825192000000243;2402
84;0.28753669999969134;2403
85;0.2919696999997541;2403
86;0.2965020999999979;2403
87;0.3009746999996423;2404
88;0.3047559000006004;2404
89;0.30770339999980933;2405
90;0.31077560000085214;2405
91;0.3152492000008351;2404
92;0.3185675999993691;2404
93;0.3215801999995165;2405
94;0.32451550000041607;2405
95;0.3276673000000301;2405
96;0.3307973999999376;2405
97;0.3338309000009758;2406
98;0.33685650000006717;2406
99;0.33990110000013374;2406
100;0.34283400000094844;2406
101;0.34582140000020445;2407
102;0.34889149999980873;2407
103;0.35289259999990463;2407
104;0.3557608999999502;2408
105;0.35901039999953355;2407
106;0.36305730000094627;2407
107;0.36706450000019686;2408
108;0.3710391000004165;2408
109;0.37477989999933925;2409
110;0.3790738000006968;2409
111;0.3830753000002005;2409
112;0.3870795000002545;2410
113;0.3906482000002143;2411
114;0.39398269999946933;2411
115;0.3980539000003773;2411
116;0.400829000000158;2412
117;0.40464480000082403;2413
118;0.4090348999998241;2414
119;0.41308240000034857;2414
120;0.4169404999993276;2414
121;0.4200018999999884;2415
122;0.4236185000008845;2416
123;0.4270059000009496;2416
124;0.4310784000008425;2417
125;0.43506040000102075;2418
126;0.4379798000009032;2418
127;0.4420107000005373;2419
128;0.446054500000173;2419
129;0.45007470000018657;2420
130;0.45405919999939215;2420
131;0.4575946000004478;2421
132;0.46101529999941704;2421
133;0.4650517999998556;2421
134;0.4685652999996819;2421
135;0.47200340000017604;2421
136;0.4760521999996854;2422
137;0.4800857999998698;2423
138;0.4840504999992845;2423
139;0.48809000000073866;2424
140;0.4920192000008683;2425
141;0.4960568999995303;2426
142;0.5000801000005595;2426
143;0.5040759999992588;2426
144;0.5076150999993843;2427
145;0.5110242000009748;2427
146;0.5145224000007147;2427
147;0.5179712000008294;2428
148;0.5220845999992889;2429
149;0.5260565999997198;2430
150;0.5288371999995434;2430
151;0.5325011999993876;2431
152;0.5360268000003998;2431
153;0.5401295000010577;2432
154;0.5439712000006693;2433
155;0.5480609999995067;2434
156;0.5520775000004505;2434
157;0.5560999000008451;2435
158;0.558977099999538;2435
159;0.5625792999999248;2436
160;0.5654759000008198;2436
161;0.5673937000010483;2437
162;0.5693828000003123;2436
163;0.5713857000009739;2436
164;0.5734009000007063;2437
165;0.575390600000901;2437
166;0.5774144000006345;2438
167;0.5794571999995242;2438
168;0.5814513999994233;2438
169;0.5834730000005948;2438
170;0.5854710999992676;2438
171;0.5877407000007224;2439
172;0.5904300000001967;2439
173;0.5937873000002583;2439
174;0.5967517999997654;2440
175;0.5997803999998723;2440
176;0.6027866999993421;2440
177;0.6057810000002064;2441
178;0.608757500000138;2441
179;0.611747999999352;2442
180;0.6147832999995444;2442
181;0.617758700000195;2442
182;0.6207833000007668;2443
183;0.6234139999996842;2443
184;0.6267779000008886;2443
185;0.6297658999992564;2443
186;0.6327557999993587;2443
187;0.6357843999994657;2444
188;0.6387608999993972;2444
189;0.6414471000007325;2444
190;0.6447183000000223;2445
191;0.6477236000009725;2445
192;0.650718599999891;2446
193;0.6537769000005937;2446
194;0.6566005000004225;2447
195;0.6595108000001346;2447
196;0.6624396000006527;2447
197;0.6654562000003352;2448
198;0.6685426000003645;2448
199;0.6714523999999074;2448
200;0.6747027000001253;2448
201;0.6775820000002568;2448
202;0.6805889999995998;2448
203;0.6836098000003403;2449
204;0.6865926999998919;2449
205;0.6895328000009613;2449
206;0.6927249000000302;2449
207;0.6957512999997562;2449
208;0.6986825999993016;2450
209;0.7031361000008474;2450
210;0.7070292999997037;2450
211;0.7110489000006055;2450
212;0.7150467999999819;2450
213;0.7190470999994432;2450
214;0.7227729999995063;2450
215;0.7260105000004842;2449
216;0.7300596000004589;2450
217;0.7340595000005123;2449
218;0.7380714999999327;2450
219;0.742023099999642;2450
220;0.7460542999997415;2450
221;0.750044300000809;2450
222;0.7540191000007326;2450
223;0.7567884000000049;2450
224;0.7599647999995796;2449
225;0.764064299999518;2449
226;0.7680266000006668;2449
227;0.7720504999997502;2449
228;0.7760545000001002;2449
229;0.7800642000001972;2449
230;0.784044800000629;2449
231;0.7867287999997643;2449
232;0.7897749999992811;2449
233;0.7927283000008174;2449
234;0.7957311999998637;2449
235;0.7987451999997575;2448
236;0.8014834999994491;2448
237;0.8045055000002321;2448
238;0.8075826000003872;2448
239;0.8110352000003331;2448
240;0.8150506000001769;2447
241;0.818574400000216;2447
242;0.8215120999993815;2447
243;0.824572999999873;2447
244;0.8279461000001902;2447
245;0.83095239999966;2446
246;0.8339436000005662;2446
247;0.8375919999998587;2446
248;0.8418056000009528;2445
249;0.8447845999999117;2445
250;0.847768300000098;2445
251;0.8507590000008349;2445
252;0.8537649999998393;2445
253;0.8567333999999391;2444
254;0.8610097000000678;2444
255;0.8650502000000415;2443
256;0.86904130000039;2443
257;0.8730735999997705;2443
258;0.8770046999998158;2442
259;0.881039800000508;2442
260;0.885038500000519;2442
261;0.889042500000869;2441
262;0.8919967000001634;2440
263;0.896038500000941;2440
264;0.9000424999994721;2440
265;0.9040492999993148;2440
266;0.9064801000004081;2439
267;0.9100730000009207;2439
268;0.9140532000001258;2439
269;0.9180427999999665;2438
270;0.9215648999997939;2438
271;0.9250057000008383;2437
272;0.9290445000006002;2437
273;0.9330229999995936;2436
274;0.9370281999999861;2436
275;0.940612800000963;2436
276;0.9439633000001777;2435
277;0.9480476000007911;2435
278;0.9519796999993559;2434
279;0.9560658000009425;2434
280;0.9600728999994317;2433
281;0.9640378999993118;2433
282;0.967979799999739;2432
283;0.9719784999997501;2431
284;0.9749836999999388;2431
285;0.9790432999998302;2430
286;0.9830060000003868;2430
287;0.9870448000001488;2429
288;0.9905956000002334;2429
289;0.9940081000004284;2428
290;0.9980439000009937;2428
291;1.0020877000006294;2428
292;1.0056289000003744;2427
293;1.0090581000004022;2427
294;1.013059200000498;2426
295;1.0165680999998585;2426
296;1.0200179000003118;2425
297;1.0235931999995955;2425
298;1.02699500000017;2424
299;1.0310222999996768;2424
300;1.0350414999993518;2423
301;1.0390540000007604;2422
302;1.041989499999545;2422
303;1.046037800000704;2422
304;1.0500300000003335;2421
305;1.054065599999376;2421
306;1.0577895999995235;2420
307;1.0621076000006724;2419
308;1.066038999999364;2418
309;1.0700655000000552;2417
310;1.0735953000003065;2417
311;1.0780023000006622;2416
312;1.0820543999998335;2415
313;1.0860663000003115;2414
314;1.0900700000001962;2413
315;1.0935453000001871;2413
316;1.0970125999992888;2413
317;1.1010655999998562;2412
318;1.1050458999998227;2411
319;1.1090610999999626;2411
320;1.1130475000009028;2410
321;1.1170476000006602;2410
322;1.1210515000002488;2409
323;1.124983899999279;2409
324;1.1279900000008638;2408
325;1.1320722000000387;2408
326;1.136071200000515;2408
327;1.1401043000005302;2408
328;1.1429910999995627;2408
329;1.147073600001022;2407
330;1.1510469000004377;2406
331;1.1550674999998591;2406
332;1.1589973000009195;2406
333;1.1630010000008042;2406
334;1.1670837000001484;2406
335;1.1710672999997769;2405
336;1.173537500000748;2405
337;1.1769005000005563;2405
338;1.1808932999992976;2405
339;1.184922700000243;2404
340;1.1885435999993206;2404
341;1.1915984000006574;2404
342;1.1948652000010043;2403
343;1.197869300000093;2403
344;1.2007159000004322;2403
345;1.2037001000007876;2403
346;1.2065810000003694;2402
347;1.20963219999976;2402
348;1.2125237000000197;2403
349;1.215516199999911;2402
350;1.2184588000000076;2402
351;1.2215194000000338;2402
352;1.224527100001069;2402
353;1.22764079999979;2402
354;1.2306728000003204;2402
355;1.2336651999994501;2401
356;1.236677900000359;2401
357;1.2396745999994891;2401
358;1.242667500000607;2401
359;1.2456796000005852;2401
360;1.2486726000006456;2401
361;1.2516696000002412;2401
362;1.2546777999996266;2401
363;1.2576435999999376;2401
364;1.2606723999997484;2401
365;1.26368039999943;2401
366;1.2666733999994904;2401
367;1.2696723000008205;2402
368;1.2726732000010088;2402
369;1.2756807999994635;2402
370;1.278677800000878;2402
371;1.2816691999996692;2402
372;1.2846785000001546;2402
373;1.2876799000005121;2402
374;1.290639299999384;2402
375;1.2936773000001267;2403
376;1.2966742000007798;2403
377;1.2996696000009251;2403
378;1.3025706999997055;2403
379;1.3055574000009074;2404
380;1.3085627000000386;2404
381;1.3115309000004345;2404
382;1.3134912000004988;2404
383;1.316927100000612;2404
384;1.3205479999996896;2404
385;1.3236474999994243;2405
386;1.3267427000009775;2405
387;1.3297254000008252;2405
388;1.3327212000003783;2405
389;1.3357470000009926;2405
390;1.3387366000006296;2406
391;1.341649600000892;2406
392;1.3446375000003172;2406
393;1.3479645000006713;2406
394;1.3516634999996313;2406
395;1.3548683000008168;2406
396;1.3588942999995197;2406
397;1.3618370999993203;2407
398;1.3646530999994866;2407
399;1.3676464000000124;2407
400;1.3705783000004885;2407
401;1.373527699999613;2407
402;1.377088499999445;2408
403;1.3808640999995987;2408
404;1.3838525999999547;2409
405;1.3868851999995968;2409
406;1.3897450999993453;2409
407;1.3928083000009792;2410
408;1.3958282999992662;2410
409;1.398828900000808;2410
410;1.4018216000004031;2411
411;1.4047064000005776;2411
412;1.4076578999993217;2411
413;1.4108312999996997;2411
414;1.413602599999649;2412
415;1.4165971000002173;2412
416;1.4194647999993322;2413
417;1.422959900000933;2413
418;1.4276384999993752;2414
419;1.4326476000005641;2415
420;1.4376272999998037;2415
421;1.4419500999993033;2416
422;1.4464721999993344;2416
423;1.4500754000000597;2417
424;1.4542123999999603;2417
425;1.4578388999998424;2418
426;1.4608891000007134;2418
427;1.4640130000007048;2418
428;1.46667780000098;2418
429;1.4698351999995793;2419
430;1.4727395999998407;2419
431;1.4758328000007168;2419
432;1.4788088999994216;2420
433;1.481811800000287;2421
434;1.484810899999502;2421
435;1.48782299999948;2421
436;1.4905264999997598;2422
437;1.4938292000006186;2422
438;1.496811600000001;2422
439;1.499750999999378;2423
440;1.5028129000002082;2423
441;1.5058143999995082;2423
442;1.5088242000001628;2424
443;1.511813600000096;2424
444;1.5148107999993954;2425
445;1.5178192000003037;2425
446;1.5208206999996037;2426
447;1.5236220000006142;2426
448;1.5265961000004609;2427
449;1.52941760000067;2427
450;1.5317307000004803;2428
451;1.5345985000003566;2428
452;1.5375782000010076;2429
453;1.540415400000711;2429
454;1.5426595000008092;2429
455;1.5454257000001235;2430
456;1.547608200000468;2430
457;1.5505950999995548;2430
458;1.5536064999996597;2430
459;1.5567996000008861;2431
460;1.5602553999997326;2431
461;1.5640397000006487;2432
462;1.568078100001003;2433
463;1.5720793000000413;2433
464;1.575006900000517;2434
465;1.5780489000007947;2435
466;1.5820595000004687;2435
467;1.5860840000004828;2436
468;1.589994800000568;2437
469;1.5940687000002072;2437
470;1.5980553000008513;2437
471;1.6020530000005238;2438
472;1.6060847000007925;2438
473;1.6088474999996834;2439
474;1.6115594000002602;2440
475;1.6149784000008367;2440
476;1.61882180000066;2441
477;1.621803699999873;2442
478;1.6248156000001472;2442
479;1.627757100000963;2442
480;1.6307558000007703;2443
481;1.6335584999997081;2443
482;1.6355275999994774;2444
483;1.6386020999998436;2444
484;1.6418869000008272;2445
485;1.6461718000009569;2445
486;1.6500207999997656;2445
487;1.6540660000009666;2445
488;1.6580049000003783;2445
489;1.662059300000692;2445
490;1.6660547999999835;2446
491;1.6700583000001643;2446
492;1.6735454999998183;2446
493;1.6770300999996834;2447
494;1.6810605999999098;2447
495;1.6850570000005973;2447
496;1.6880242999995971;2447
497;1.6920886999996583;2447
498;1.696088900000177;2448
499;1.6999193999999989;2448
500;1.7036600999999791;2448
501;1.7065259000009974;2448
502;1.7097315000009985;2448
503;1.712677600000461;2448
504;1.715880699999616;2449
505;1.7185387999998056;2449
506;1.7215333999993163;2449
507;1.7247468000005028;2449
508;1.7276340000007622;2449
509;1.7306150000003981;2450
510;1.7336625999996613;2450
511;1.7366621000001032;2450
512;1.7397115000003396;2450
513;1.7427913999999873;2450
514;1.7458057000003464;2450
515;1.748799200000576;2449
516;1.7518015999994532;2449
517;1.7547974000008253;2450
518;1.7575438999992912;2450
519;1.7594616999995196;2449
520;1.761502900000778;2449
521;1.7637790999997378;2449
522;1.7667858000004344;2449
523;1.7698299999992742;2448
524;1.772839400000521;2448
525;1.7758319000004121;2448
526;1.7788187999994989;2448
527;1.7818213000009564;2448
528;1.7848209999992832;2448
529;1.7878416999992623;2448
530;1.7906671000000642;2447
531;1.7937808999995468;2448
532;1.7967884999998205;2448
533;1.7997890999995434;2447
534;1.802379299999302;2447
535;1.804532800000743;2447
536;1.8077898999999888;2447
537;1.810784400000557;2447
538;1.8137879000005341;2447
539;1.8167771000007633;2446
540;1.8195536000002903;2446
541;1.8214114000002155;2446
542;1.8233954000006634;2446
543;1.8265224999995553;2446
544;1.8295331000008446;2446
545;1.8328901000004407;2446
546;1.8360290000000532;2446
547;1.8391081000008853;2446
548;1.8430994000009377;2445
549;1.8470553000006475;2445
550;1.8506546999997227;2445
551;1.8537324999997509;2444
552;1.8565113000004203;2444
553;1.8596892999994452;2444
554;1.8626542000001791;2444
555;1.865647500000705;2444
556;1.8687659000006533;2443
557;1.8716844999999012;2443
558;1.8748467000004894;2443
559;1.8778541000010591;2442
560;1.880856899999344;2442
561;1.883860800000548;2442
562;1.8868677000009484;2442
563;1.8896801000009873;2442
564;1.892829399999755;2442
565;1.8958328000007896;2441
566;1.89883860000009;2441
567;1.9018515000007028;2441
568;1.904836100000466;2440
569;1.9078554000006989;2440
570;1.9108300000007148;2440
571;1.9138519999996788;2439
572;1.916861899999276;2439
573;1.919648099999904;2439
574;1.9229161000002932;2438
575;1.9258217999995395;2438
576;1.9288464000001113;2438
577;1.931821600001058;2438
578;1.9347880999994231;2437
579;1.937802800001009;2436
580;1.940792200000942;2436
581;1.943812200001048;2436
582;1.9468016000009811;2435
583;1.9497907999993913;2435
584;1.9528104000000894;2434
585;1.9557789000009507;2434
586;1.958770799999911;2433
587;1.9617804000008618;2433
588;1.964776000000711;2432
589;1.9677738999998837;2432
590;1.970774800000072;2431
591;1.973661500000162;2431
592;1.9767735000004905;2431
593;1.9798004000003857;2430
594;1.982482400000663;2430
595;1.9855504000006476;2429
596;1.9874586000005365;2429
597;1.989421800000855;2429
598;1.9914220000009664;2429
599;1.9944173999992927;2428
600;1.9964343999999983;2428
601;1.9983967000007397;2428
602;2.0004054000000906;2428
603;2.002614700000777;2428
604;2.0055749000002834;2427
605;2.0075572000005195;2427
606;2.0105750000002445;2427
607;2.0136805000001914;2426
608;2.016798300001028;2426
609;2.019805100000667;2426
610;2.0227992000000086;2425
611;2.0258013000002393;2424
612;2.0287552000008873;2424
613;2.031781100000444;2424
614;2.03478720000021;2423
615;2.037751300000309;2423
616;2.0406015000007756;2423
617;2.043775699999969;2423
618;2.046804300000076;2422
619;2.049792800000432;2421
620;2.0527758999996877;2421
621;2.055803700000979;2421
622;2.0588053000010405;2420
623;2.061813100001018;2419
624;2.064785500000653;2419
625;2.0678055999997014;2419
626;2.0707662000004348;2418
627;2.073587299999417;2418
628;2.0765424000001076;2417
629;2.0798063000002003;2417
630;2.0828068000009807;2416
631;2.085800599999857;2416
632;2.0888075000002573;2416
633;2.091752500000439;2415
634;2.0945472000003065;2415
635;2.0975278000005346;2415
636;2.100849599999492;2414
637;2.1038509999998496;2414
638;2.106445100000201;2413
639;2.109858100000565;2413
640;2.1128506000004563;2412
641;2.115666899999269;2412
642;2.1188175000006595;2411
643;2.121817799999917;2411
644;2.1248273000001063;2411
645;2.1278163000006316;2411
646;2.1308171000000584;2410
647;2.133818500000416;2410
648;2.136823299999378;2410
649;2.1393977000007;2409
650;2.1416681999999128;2409
651;2.1447963999999047;2409
652;2.1478232000008575;2408
653;2.150818000000072;2408
654;2.1538141000000905;2408
655;2.15649090000079;2408
656;2.1598159999994095;2407
657;2.1628213999993022;2407
658;2.1658105999995314;2407
659;2.1688002000009874;2406
660;2.171808400000373;2406
661;2.174805300001026;2406
662;2.1778001000002405;2406
663;2.18080000000009;2406
664;2.18381380000028;2405
665;2.186481599999752;2405
666;2.1895899000010104;2405
667;2.1928119999993214;2404
668;2.19580440000027;2404
669;2.1988055000001623;2404
670;2.2018588000009913;2404
671;2.2047903000002407;2404
672;2.207497900000817;2404
673;2.210824699999648;2403
674;2.213795499999833;2403
675;2.2168086000001495;2403
676;2.219802100000379;2403
677;2.2228073999995104;2402
678;2.22581320000063;2402
679;2.2288076000004367;2402
680;2.2318027000001166;2402
681;2.2344730000004347;2402
682;2.23780269999952;2402
683;2.2404284000003827;2402
684;2.2438187999996444;2402
685;2.2467868000003364;2402
686;2.250022700000045;2402
687;2.2530251999996835;2402
688;2.2566578999994817;2402
689;2.25978860000032;2402
690;2.2628598000010243;2402
691;2.2658473000010417;2403
692;2.268852999999581;2402
693;2.2718208999995113;2402
694;2.275030400000105;2402
695;2.2790875999999116;2402
696;2.2830816000005143;2402
697;2.2870836000001873;2402
698;2.2910013000000617;2403
699;2.293994499999826;2403
700;2.2980946999996377;2403
701;2.3020832000001974;2404
702;2.3060925000008865;2404
703;2.3084331000009115;2404
704;2.3117617999996583;2403
705;2.314994200000001;2404
706;2.3190830999992613;2404
707;2.322762600000715;2404
708;2.325508899999477;2404
709;2.327830599999288;2404
710;2.3308149999993475;2404
711;2.3338088000000425;2404
712;2.336803599999257;2404
713;2.339713600000323;2404
714;2.3426533000001655;2404
715;2.345618299999842;2405
716;2.348619800000961;2405
717;2.3516450000006444;2406
718;2.354677900000752;2406
719;2.3576991999998427;2406
