;time;amplitude
0;0.0035219000001234235;2426
1;0.006636799998887;2425
2;0.010871799999222276;2425
3;0.015017199999419972;2424
4;0.01868819999981497;2424
5;0.022597299999688403;2423
6;0.026562400000329944;2423
7;0.030956700000388082;2422
8;0.03433419999964826;2422
9;0.03780919999917387;2421
10;0.04196810000030382;2421
11;0.045562399998743786;2420
12;0.048347099998863996;2420
13;0.05140249999931257;2419
14;0.055375899999489775;2419
15;0.05879029999960039;2418
16;0.06233539999993809;2417
17;0.06565239999872574;2417
18;0.06971270000030927;2416
19;0.07344439999906172;2416
20;0.07670929999949294;2415
21;0.08078889999887906;2415
22;0.08434699999997974;2414
23;0.0877280000004248;2414
24;0.0917671999995946;2413
25;0.09573590000036347;2413
26;0.099785399999746;2412
27;0.10268929999983811;2412
28;0.10677959999884479;2411
29;0.11061429999972461;2411
30;0.11476500000026135;2411
31;0.11828789999890432;2410
32;0.12173350000011851;2409
33;0.12574969999877794;2409
34;0.12987239999893063;2408
35;0.13221270000030927;2408
36;0.13552009999875736;2407
37;0.13974319999942963;2407
38;0.14374879999922996;2406
39;0.147355899998729;2406
40;0.15145119999942835;2405
41;0.15452019999975164;2405
42;0.15758359999927052;2405
43;0.16057989999899291;2405
44;0.1635504999994737;2405
45;0.16654019999987213;2404
46;0.16974089999894204;2404
47;0.1737690999998449;2404
48;0.17775629999960074;2404
49;0.181874500000049;2403
50;0.18539009999949485;2403
51;0.18882750000011583;2403
52;0.1928686999999627;2402
53;0.1968630999999732;2402
54;0.2009139999991021;2402
55;0.204855599999064;2402
56;0.20887930000026245;2402
57;0.21282780000001367;2402
58;0.21684129999994184;2403
59;0.21972079999977723;2403
60;0.22379149999869696;2402
61;0.22763039999881585;2401
62;0.23131389999980456;2401
63;0.234375;2401
64;0.23773679999976594;2400
65;0.24179029999868362;2400
66;0.2458452999999281;2400
67;0.249883200000113;2400
68;0.25270869999985734;2399
69;0.2567901999991591;2400
70;0.2606259999993199;2400
71;0.26432959999874583;2400
72;0.26727329999994254;2400
73;0.2704703999988851;2400
74;0.2737141999987216;2400
75;0.2777399999995396;2400
76;0.28119729999889387;2401
77;0.2853562999989663;2401
78;0.28866219999872555;2400
79;0.29267280000021856;2400
80;0.29680519999965327;2401
81;0.3009333999998489;2401
82;0.3046861999991961;2402
83;0.30859419999978854;2402
84;0.3115903999987495;2403
85;0.31458679999923334;2403
86;0.31739829999969515;2403
87;0.3215186999987054;2404
88;0.3244703999989724;2405
89;0.3274653999997099;2405
90;0.3304642999992211;2405
91;0.3334577999994508;2405
92;0.33646260000023176;2405
93;0.33945719999974244;2405
94;0.3424653000001854;2405
95;0.34547070000007807;2405
96;0.34807739999996556;2406
97;0.3511670999996568;2406
98;0.35424699999930453;2406
99;0.35786539999935485;2406
100;0.3618033999991894;2407
101;0.36512969999967027;2408
102;0.3683873999998468;2408
103;0.37150279999877966;2409
104;0.374485199999981;2409
105;0.37750669999877573;2409
106;0.38052109999989625;2410
107;0.3834783000002062;2410
108;0.38644099999874015;2410
109;0.3893644999989192;2410
110;0.3923667999988538;2411
111;0.3952611999993678;2410
112;0.3984679999994114;2411
113;0.40124979999927746;2411
114;0.40449179999995977;2411
115;0.40747649999866553;2412
116;0.41028949999963515;2412
117;0.41318630000023404;2413
118;0.41669240000010177;2413
119;0.4210646999999881;2414
120;0.42603129999952216;2415
121;0.4298574999993434;2415
122;0.43410020000010263;2416
123;0.4378251999987697;2416
124;0.4420204999987618;2417
125;0.4470012999991013;2417
126;0.4516717999995308;2418
127;0.4560196000002179;2418
128;0.4616327999992791;2419
129;0.4658960999986448;2420
130;0.46985289999975066;2421
131;0.4738780999996379;2421
132;0.4778750999994372;2422
133;0.48187639999923704;2423
134;0.4854221999994479;2424
135;0.4896993000002112;2424
136;0.4939092000004166;2425
137;0.49788660000012896;2425
138;0.5014422000003833;2426
139;0.50455890000012;2427
140;0.5089052000002994;2427
141;0.5128518999990774;2428
142;0.516901400000279;2428
143;0.5208861999999499;2429
144;0.5244112999989738;2429
145;0.5273309999993216;2429
146;0.5303571999993437;2430
147;0.5332748999990145;2430
148;0.5361842000002071;2431
149;0.5392250999993848;2431
150;0.5421734999999899;2431
151;0.5451819999998406;2432
152;0.5481395999995584;2433
153;0.5501950999987457;2433
154;0.5531637999993109;2433
155;0.5561608999996679;2433
156;0.5595683999999892;2433
157;0.5626186999998026;2433
158;0.5654096999987814;2434
159;0.5694203999992169;2434
160;0.5726133999996819;2435
161;0.5766327000001183;2435
162;0.5806417999992846;2435
163;0.5845446999992419;2436
164;0.5889016000000993;2437
165;0.59289009999884;2437
166;0.5969026000002486;2438
167;0.6009868000001006;2439
168;0.6048145999993721;2439
169;0.6088244000002305;2440
170;0.6128272999994806;2441
171;0.6167863999999099;2441
172;0.6207611999998335;2442
173;0.6247244999995019;2442
174;0.6288325999994413;2443
175;0.6327775999998266;2444
176;0.6368310999987443;2444
177;0.6408536999988428;2445
178;0.6448216999997385;2445
179;0.648832400000174;2446
180;0.6526950999996188;2446
181;0.6568306999997731;2446
182;0.6607910999991873;2446
183;0.6644017999988137;2447
184;0.6673484000002645;2447
185;0.6709386999991693;2447
186;0.6747439999999187;2447
187;0.6788429999996879;2447
188;0.6829711999998835;2447
189;0.6863741999986814;2447
190;0.6897126000003482;2447
191;0.6936112999992474;2447
192;0.6977226999988488;2447
193;0.7013150999991922;2447
194;0.7048412999993161;2447
195;0.7088208999994094;2448
196;0.7129029999996419;2448
197;0.7168903000001592;2448
198;0.7208817999999155;2449
199;0.7248435999990761;2449
200;0.7288955000003625;2449
201;0.7329245999990235;2449
202;0.7368709000002127;2450
203;0.7406371999986732;2449
204;0.74493689999872;2450
205;0.7487621999989642;2450
206;0.752843500000381;2450
207;0.7568351999998413;2450
208;0.7608856999995623;2450
209;0.7649368999991566;2450
210;0.7683132000001933;2450
211;0.771307799999704;2450
212;0.7755149999993591;2450
213;0.7785951999994722;2450
214;0.782945999999356;2450
215;0.7866214999994554;2450
216;0.7908979000003455;2450
217;0.7949229999994714;2449
218;0.798909499999354;2449
219;0.8024361999996472;2449
220;0.8066792999998142;2448
221;0.8094368999991275;2448
222;0.8126230999987456;2448
223;0.8154056000003038;2447
224;0.8184020999997301;2447
225;0.8215653999995993;2447
226;0.8255568999993557;2447
227;0.8285844000001816;2447
228;0.8325831999991351;2446
229;0.8354256999991776;2446
230;0.8385823999997228;2446
231;0.8415855999992345;2446
232;0.8455871999994997;2446
233;0.8496503999995184;2445
234;0.8525847999990219;2445
235;0.8565841999989061;2445
236;0.8595905000001949;2444
237;0.8625897999991139;2444
238;0.8654121999989002;2443
239;0.8685073999986344;2443
240;0.8713200999991386;2443
241;0.8743096999987756;2443
242;0.8777926999991905;2442
243;0.8817791000001307;2442
244;0.8857905000004394;2441
245;0.8900131999998848;2441
246;0.8953621999989991;2441
247;0.8997889999991457;2440
248;0.9039128000003984;2439
249;0.9080957999995007;2439
250;0.912060399999973;2439
251;0.915555100000347;2438
252;0.9200781999988976;2437
253;0.9250804999992397;2437
254;0.9301123999994161;2436
255;0.9340429999992921;2436
256;0.9380874999988009;2435
257;0.941966099999263;2434
258;0.9460660999993706;2434
259;0.9500688999996783;2434
260;0.9551123000001098;2433
261;0.9589514999988751;2433
262;0.9630755999987741;2432
263;0.9670624999998836;2431
264;0.9705646999991586;2431
265;0.975014800000281;2431
266;0.9790465999994922;2430
267;0.984045100000003;2430
268;0.9880780000003142;2429
269;0.9919465999992099;2428
270;0.9960928000000422;2428
271;0.9999191999995674;2427
272;1.0040726999995968;2427
273;1.0075379999998404;2426
274;1.0105881999988924;2426
275;1.0151086999994732;2426
276;1.018509899999117;2425
277;1.0226822999993601;2425
278;1.026569899999231;2424
279;1.0295384000000922;2424
280;1.0325487999998586;2423
281;1.035540699998819;2423
282;1.040114800000083;2422
283;1.0451372999996238;2421
284;1.0501420000000508;2420
285;1.0532676000002539;2420
286;1.0580931999993481;2419
287;1.062058599998636;2418
288;1.0656137999994826;2417
289;1.069596499999534;2417
290;1.0741117999987182;2416
291;1.0779397999995126;2415
292;1.0820972000001348;2415
293;1.0865929999999935;2414
294;1.0910471999995934;2413
295;1.0949932999992598;2413
296;1.0990719000001263;2412
297;1.1024326999995537;2412
298;1.1071095999996032;2411
299;1.1105963999998494;2411
300;1.115110900000218;2411
301;1.1195870999999897;2410
302;1.1239717999997083;2410
303;1.1280798999996478;2410
304;1.1320224999999482;2409
305;1.1353901000002224;2409
306;1.138847899999746;2409
307;1.1429231999991316;2408
308;1.1469398999997793;2408
309;1.1503402999987884;2407
310;1.153437599999961;2407
311;1.1568888999991032;2407
312;1.1608508999997866;2406
313;1.1644563999998354;2406
314;1.1673391000003903;2406
315;1.170553199999631;2406
316;1.1737604999998439;2405
317;1.1775254999993194;2405
318;1.1803519999994023;2405
319;1.1834486999996443;2405
320;1.1864528999994945;2405
321;1.1907451999995828;2405
322;1.1947043999989546;2404
323;1.1977181999991444;2404
324;1.2013788999993267;2404
325;1.2057526999997208;2403
326;1.2097458999996888;2404
327;1.213789800000086;2403
328;1.2175210999994306;2404
329;1.2204308999989735;2404
330;1.2248149999995803;2404
331;1.2288429999989603;2403
332;1.2330541999999696;2403
333;1.2364404999989347;2403
334;1.2397240999998758;2403
335;1.2438122000003204;2403
336;1.247824000000037;2403
337;1.2503806999993685;2403
338;1.2533879000002344;2403
339;1.2564148000001296;2402
340;1.2596171999994112;2402
341;1.2625975999999355;2402
342;1.2664351999992505;2403
343;1.2692742999988695;2403
344;1.2726327999989735;2403
345;1.2765748999991047;2403
346;1.2794694999993226;2404
347;1.2824624000004405;2404
348;1.2853529000003618;2404
349;1.2881569000001036;2403
350;1.291628099999798;2403
351;1.2957408000002033;2403
352;1.2997500999990734;2404
353;1.302576299998691;2404
354;1.3055944999996427;2405
355;1.3084120999992592;2404
356;1.3113974999996572;2405
357;1.314408899999762;2405
358;1.3173643999998603;2405
359;1.3204960999992181;2406
360;1.3235162000000855;2406
361;1.3268965999995999;2407
362;1.3308486999994784;2407
363;1.3342949999987468;2407
364;1.3377424999998766;2407
365;1.3417864000002737;2407
366;1.345754300000408;2407
367;1.3497796999999991;2407
368;1.3538343000000168;2407
369;1.3577434999988327;2408
370;1.3617593999988458;2408
371;1.3657838999988599;2409
372;1.3697524999988673;2409
373;1.373749799999132;2409
374;1.3777481999986776;2410
375;1.381742800000211;2410
376;1.3857325999997556;2411
377;1.3897502999989229;2411
378;1.3936077999987901;2412
379;1.396671000000424;2412
380;1.400688399999126;2413
381;1.404754099999991;2413
382;1.4087519999993674;2414
383;1.4127618000002258;2414
384;1.4167617000002792;2415
385;1.419719100000293;2416
386;1.4237544999996317;2416
387;1.427758799998628;2417
388;1.430735599999025;2417
389;1.434277700000166;2418
390;1.4377014999990934;2418
391;1.4417539999994915;2419
392;1.4456792999990284;2419
393;1.4486657999987074;2420
394;1.4527476000002935;2420
395;1.4567535999995016;2420
396;1.4602599999998347;2421
397;1.4637188999986392;2421
398;1.4672969999992347;2421
399;1.47067319999951;2422
400;1.4736706000003323;2422
401;1.4762429999991582;2423
402;1.4791740999989997;2423
403;1.4811687000001257;2424
404;1.4831686999987141;2424
405;1.4854551999997057;2424
406;1.4884432999988348;2424
407;1.4914774999997462;2424
408;1.494509599999219;2425
409;1.4974923999998282;2426
410;1.5004110999998375;2426
411;1.5034888999998657;2427
412;1.5064905999988696;2427
413;1.5094840999990993;2428
414;1.5124998999999661;2428
415;1.515498499999012;2429
416;1.5185000999990734;2429
417;1.5214865999987524;2429
418;1.524496599999111;2430
419;1.5274814000003971;2430
420;1.5304892000003747;2431
421;1.5335053999988304;2430
422;1.5364919000003283;2431
423;1.5393563999987236;2432
424;1.5424874999989697;2432
425;1.5454886999996233;2432
426;1.5484814999999799;2433
427;1.5514901999995345;2433
428;1.5542580999990605;2433
429;1.557493099999192;2433
430;1.5603684999987308;2434
431;1.5634847000001173;2434
432;1.5664875999991636;2434
433;1.5695004999997764;2434
434;1.5725158999994164;2435
435;1.5754832999991777;2435
436;1.5784844999998313;2435
437;1.5814776999995956;2435
438;1.5841228999997838;2435
439;1.5875247999993007;2436
440;1.590490900000077;2437
441;1.593485999999757;2437
442;1.5964948999990156;2437
443;1.599493599998823;2437
444;1.6025116999990132;2438
445;1.6054801999998745;2439
446;1.608468799999173;2439
447;1.6114741999990656;2440
448;1.6144750999992539;2440
449;1.6172224999991158;2440
450;1.620486300000266;2440
451;1.6234540999994351;2441
452;1.6264721999996254;2441
453;1.6294706999997288;2442
454;1.6325028999999631;2442
455;1.6354738999998517;2443
456;1.638482499998645;2443
457;1.6414810999995098;2443
458;1.6444750999999087;2443
459;1.64745000000039;2444
460;1.650352999999086;2444
461;1.653478999998697;2445
462;1.656466200000068;2445
463;1.6594798999994964;2445
464;1.6624807999996847;2445
465;1.6654798999988998;2446
466;1.6684685999989597;2446
467;1.6714773000003333;2447
468;1.6744844999993802;2447
469;1.6773433999987901;2447
470;1.6801876999998058;2447
471;1.6834894999992684;2447
472;1.686479199999667;2447
473;1.6894804000003205;2447
474;1.6924746999993658;2447
475;1.6951408999993873;2447
476;1.6984744999990653;2447
477;1.701487399999678;2447
478;1.7044753999998647;2447
479;1.7074642999996286;2447
480;1.7104925999992702;2447
481;1.713274800000363;2447
482;1.716480999999476;2447
483;1.719373899999482;2447
484;1.722370299999966;2447
485;1.7253494999986287;2447
486;1.7288663999988785;2447
487;1.732729699999254;2447
488;1.735534399998869;2447
489;1.7385113000000274;2446
490;1.741480299999239;2446
491;1.7445126000002347;2446
492;1.7475082000000839;2446
493;1.7502765999997791;2446
494;1.7531519000003755;2446
495;1.755148399999598;2447
496;1.7576819999994768;2447
497;1.7617360999993252;2446
498;1.7657566999987466;2446
499;1.7692241000004287;2447
500;1.7723489999989397;2447
501;1.7754208999995171;2447
502;1.7784288000002562;2447
503;1.7814839000002394;2447
504;1.784185399999842;2447
505;1.787441399999807;2447
506;1.7904474999995728;2447
507;1.7931092999988323;2447
508;1.7963798999990104;2447
509;1.7993866999986494;2447
510;1.802322899999126;2447
511;1.8051818999992975;2447
512;1.808181299998978;2447
513;1.8112031999989995;2447
514;1.8142926000000443;2447
515;1.8172515999995085;2447
516;1.8201650999999401;2447
517;1.8221573999999237;2447
518;1.8241834999989806;2446
519;1.826205999999729;2446
520;1.829728900000191;2446
521;1.8338722999997117;2446
522;1.83669159999954;2446
523;1.8407461999995576;2446
524;1.844756000000416;2445
525;1.848758899999666;2445
526;1.8515583999997034;2444
527;1.8557719000000361;2444
528;1.8597651999989466;2443
529;1.863765099999;2443
530;1.867297900000267;2443
531;1.870736400000169;2442
532;1.874751399998786;2442
533;1.87875189999977;2442
534;1.8827100999988033;2442
535;1.8857167999995;2441
536;1.8897583999987546;2441
537;1.8937611999990622;2440
538;1.8972792999993544;2440
539;1.9005144999991899;2439
540;1.9047541999989335;2439
541;1.9087588000002143;2438
542;1.9126992999990762;2438
543;1.9156702000000223;2437
544;1.91866569999911;2437
545;1.9227682999990066;2437
546;1.9267602999989322;2436
547;1.9307611999993242;2435
548;1.934314699999959;2435
549;1.9376732999990054;2434
550;1.9417704999996204;2434
551;1.9455866999996942;2434
552;1.9485968999997567;2433
553;1.9513299999998708;2432
554;1.954742099998839;2431
555;1.9587622999988525;2431
556;1.9627088999986881;2430
557;1.966693700000178;2430
558;1.9696218999997654;2430
559;1.9727028999986942;2429
560;1.9767316999987088;2429
561;1.980763300000035;2429
562;1.9843056999998225;2428
563;1.9877333999993425;2428
564;1.9913779999988037;2427
565;1.9946749999999156;2427
566;1.9977050999987114;2427
567;2.0015144999997574;2426
568;2.004714499998954;2426
569;2.008250799999587;2425
570;2.0111942999992607;2425
571;2.014102199998888;2425
572;2.0161294999998063;2424
573;2.018054599999232;2424
574;2.0200039999999717;2424
575;2.0219982999988133;2424
576;2.0240162999998574;2423
577;2.0261608000000706;2423
578;2.028119599999627;2423
579;2.030224799998905;2423
580;2.0322106999992684;2422
581;2.034104499998648;2422
582;2.036239099999875;2422
583;2.039238600000317;2422
584;2.041210699999283;2421
585;2.0442853000004106;2420
586;2.04728619999878;2420
587;2.050205999999889;2419
588;2.052572299999156;2419
589;2.0555246000003535;2418
590;2.058553999999276;2417
591;2.061532300000181;2416
592;2.064545299999736;2416
593;2.067160499998863;2415
594;2.0704838000001473;2415
595;2.0734804999992775;2415
596;2.076445999999123;2414
597;2.079515800000081;2414
598;2.0825124999992113;2414
599;2.0856048999994528;2413
600;2.0885207999999693;2413
601;2.0915125999999873;2412
602;2.094534300000305;2412
603;2.0975504999987606;2411
604;2.100247499998659;2411
605;2.1035137999988365;2410
606;2.1064780999986397;2410
607;2.10949090000031;2410
608;2.1124865999991016;2410
609;2.1154726999993727;2409
610;2.1182339999995747;2409
611;2.1215023000004294;2409
612;2.124477299999853;2408
613;2.1274708999990253;2408
614;2.1304705000002286;2408
615;2.1334838999991916;2408
616;2.1364651000003505;2408
617;2.1394607000001997;2408
618;2.142473699999755;2407
619;2.1454871999994793;2407
620;2.148245999998835;2407
621;2.1514791999998124;2407
622;2.1544740999997885;2406
623;2.1574712000001455;2406
624;2.1604583999996976;2406
625;2.1634541999992507;2406
626;2.1661865999994916;2405
627;2.168585199999143;2405
628;2.171551699999327;2405
629;2.175578200000018;2405
630;2.1785399000000325;2405
631;2.1815312999988237;2405
632;2.184258499999487;2404
633;2.1874738999995316;2404
634;2.1904698999987886;2404
635;2.1934351999989303;2404
636;2.1964764000003925;2404
637;2.199476300000242;2404
638;2.202507099998911;2404
639;2.205452799998966;2404
640;2.2084586000000854;2404
641;2.211127700000361;2404
642;2.214503199998944;2403
643;2.2171909999997297;2403
644;2.220515899998645;2403
645;2.2234922999996343;2403
646;2.2263833999986673;2403
647;2.2294915999991645;2403
648;2.2324800999995205;2402
649;2.2355018999987806;2402
650;2.238483899998755;2402
651;2.2414826000003814;2402
652;2.244189400000323;2402
653;2.247503799999322;2402
654;2.2501190999992104;2402
655;2.253361199998835;2402
656;2.256324500000119;2402
657;2.259071499998754;2402
658;2.261174299999766;2402
659;2.264310499998828;2402
660;2.2670374999997875;2402
661;2.2703067000002193;2402
662;2.273313899999266;2402
663;2.276331899998695;2402
664;2.2793812999989314;2402
665;2.2826047999988077;2402
666;2.2851756999989448;2402
667;2.2871032000002742;2403
668;2.290472699998645;2403
669;2.293327399998816;2403
670;2.2964594999994006;2403
671;2.299495899998874;2403
672;2.3025268000001233;2403
673;2.305523999999423;2404
674;2.3084385999991355;2404
675;2.3112686000004032;2404
676;2.3144878999992216;2404
677;2.31719129999874;2404
678;2.3203033999998297;2405
679;2.323307399999976;2405
680;2.3263072999998258;2405
681;2.3292932999993354;2405
682;2.332136499999251;2405
683;2.3354437999987567;2405
684;2.3384580000001733;2405
685;2.3414537999997265;2405
686;2.3444915000000037;2406
687;2.3478054999995948;2406
688;2.351283300000432;2406
689;2.3544920999993337;2407
690;2.357455100000152;2407
691;2.360479699998905;2407
692;2.363497799999095;2408
693;2.3663421999990533;2408
694;2.3695052999992186;2408
695;2.372499600000083;2409
696;2.375503600000229;2409
697;2.3782653999987815;2410
698;2.381502199999886;2410
699;2.3845063999997365;2410
700;2.3875080999987404;2411
701;2.39048129999901;2411
702;2.3934661999992386;2411
703;2.3964954999992187;2412
704;2.3995052999998734;2412
705;2.402499899999384;2413
706;2.405500699998811;2413
707;2.4085084999987885;2413
708;2.4114952999989328;2413
709;2.4145042000000103;2414
710;2.417163399999481;2414
711;2.4205086000001756;2414
712;2.4235045999994327;2415
713;2.4264272000000346;2415
714;2.4291104000003543;2416
715;2.4325064000004204;2416
716;2.435500300000058;2416
717;2.4385032999998657;2416
718;2.4414992999991227;2417
719;2.444621799999368;2417
