;time;amplitude
0;0.002630299999509589;2410
1;0.00561329999982263;2411
2;0.009449299999687355;2412
3;0.012528499999461928;2413
4;0.015418700000736862;2415
5;0.018398199999865028;2416
6;0.02131310000004305;2417
7;0.02434449999964272;2418
8;0.027801500000350643;2419
9;0.03147970000100031;2421
10;0.03436660000079428;2422
11;0.03758870000092429;2423
12;0.040408799999568146;2424
13;0.04332520000025397;2425
14;0.04629879999993136;2426
15;0.04955340000014985;2427
16;0.05234790000031353;2428
17;0.05550539999967441;2429
18;0.058661799999754294;2431
19;0.061444200000551064;2432
20;0.06438960000014049;2434
21;0.06720580000001064;2435
22;0.070383899999797;2436
23;0.07348939999974391;2438
24;0.07651570000052743;2440
25;0.07926190000034694;2441
26;0.08151139999972656;2442
27;0.08427250000022468;2444
28;0.08975350000036997;2444
29;0.12241610000091896;2459
30;0.12507580000055896;2461
31;0.1272506000004796;2462
32;0.13027429999965534;2463
33;0.13508340000043972;2465
34;0.14025729999957548;2467
35;0.14337720000003173;2468
36;0.14631550000012794;2469
37;0.14926510000077542;2470
38;0.15220050000061747;2471
39;0.15529150000111258;2473
40;0.15819399999963935;2474
41;0.1615462000008847;2476
42;0.16432560000066587;2478
43;0.16722260000096867;2479
44;0.16926090000015392;2480
45;0.17238300000099116;2481
46;0.17532500000015716;2482
47;0.1772134000002552;2483
48;0.1802320000006148;2484
49;0.18341700000019046;2485
50;0.18631190000087372;2486
51;0.18923560000075668;2487
52;0.19240680000075372;2488
53;0.1953496999994968;2489
54;0.1983663000009983;2490
55;0.20113080000010086;2492
56;0.2031912000002194;2493
57;0.20679290000043693;2494
58;0.20959640000000945;2495
59;0.21263270000054035;2496
60;0.21573759999955655;2498
61;0.21923849999984668;2499
62;0.22121730000071693;2500
63;0.22437900000113586;2501
64;0.22720180000032997;2503
65;0.22925709999981336;2504
66;0.23219450000033248;2504
67;0.2352614999999787;2505
68;0.23828069999945;2506
69;0.2411344000011013;2507
70;0.24320199999965553;2508
71;0.24630890000116779;2510
72;0.24947860000065702;2511
73;0.2521904999994149;2512
74;0.25517650000074354;2513
75;0.2573996999999508;2514
76;0.26036200000089593;2514
77;0.26350450000063574;2515
78;0.2663826000007248;2517
79;0.2705361999996967;2518
80;0.27329830000053335;2519
81;0.27640819999942323;2520
82;0.27916000000004715;2521
83;0.2821516000003612;2522
84;0.28510199999982433;2523
85;0.2885440000009112;2524
86;0.2912001999993663;2526
87;0.29427059999943594;2527
88;0.29742780000015046;2528
89;0.30030900000019756;2529
90;0.30322049999995215;2530
91;0.3063056000009965;2532
92;0.3091182000007393;2532
93;0.311419499999829;2533
94;0.31433060000017576;2534
95;0.3170953999997437;2535
96;0.3192051000005449;2536
97;0.32111100000111037;2537
98;0.3230977000002895;2537
99;0.325369000000137;2538
100;0.32820879999962926;2539
101;0.33016739999948186;2540
102;0.33334629999990284;2541
103;0.336138700000447;2542
104;0.3392965000002732;2542
105;0.3423486000010598;2543
106;0.3455197000002954;2544
107;0.34836279999944963;2545
108;0.35117499999978463;2546
109;0.35316559999955643;2547
110;0.3563274000007368;2548
111;0.3592558000000281;2548
112;0.3622209000004659;2549
113;0.36530909999964933;2550
114;0.36816429999998945;2551
115;0.3702539000005345;2552
116;0.3732350000009319;2552
117;0.37540290000106324;2553
118;0.37849980000100913;2553
119;0.38138679999974556;2555
120;0.3852208000007522;2556
121;0.38836389999960375;2556
122;0.39116570000078354;2557
123;0.3943213000002288;2558
124;0.3975420999995549;2559
125;0.40033410000069125;2560
126;0.4032430999995995;2560
127;0.4062040999997407;2561
128;0.4092942999996012;2563
129;0.4121128000006138;2563
130;0.41539779999948223;2564
131;0.4191188000004331;2565
132;0.42238499999984924;2566
133;0.4252264999995532;2567
134;0.42760009999983595;2567
135;0.4306140000007872;2568
136;0.43322749999970256;2569
137;0.43514719999984663;2570
138;0.43846250000024156;2570
139;0.44123729999955685;2571
140;0.44434720000026573;2571
141;0.4460345999996207;2572
142;0.44940350000069884;2572
143;0.45224640000014915;2573
144;0.4551547999999457;2573
145;0.4583567999998195;2574
146;0.4612080999995669;2575
147;0.46422680000068794;2575
148;0.4671039999993809;2576
149;0.46937220000108937;2577
150;0.4724482000001444;2577
151;0.47538859999986016;2578
152;0.4782916000003752;2578
153;0.4801669000007678;2579
154;0.4833555000004708;2579
155;0.48635810000087076;2580
156;0.4892600000002858;2581
157;0.49218959999961953;2581
158;0.49412889999985055;2582
159;0.4963476000011724;2582
160;0.4992428999994445;2582
161;0.5011226999995415;2583
162;0.5042274000006728;2583
163;0.5071430999996664;2583
164;0.5103545000001759;2584
165;0.5135018000000855;2584
166;0.5162352000006649;2585
167;0.5182113000009849;2586
168;0.5211751000006188;2586
169;0.523317400000451;2587
170;0.5261482000005344;2587
171;0.5293474000009155;2587
172;0.5323908000009396;2587
173;0.5351098999999522;2587
174;0.5373668000011094;2588
175;0.5403841999996075;2588
176;0.543397700001151;2588
177;0.5466715000002296;2589
178;0.5506810000006226;2589
179;0.5534611000002769;2589
180;0.5565679000010277;2589
181;0.5592285000002448;2590
182;0.5625755000000936;2590
183;0.565524200001164;2590
184;0.5682529999994586;2591
185;0.5714048000008916;2591
186;0.5744845999997779;2591
187;0.577448899999581;2592
188;0.5805140000011306;2592
189;0.5832112999996752;2592
190;0.5854969000010897;2592
191;0.5884341000000859;2593
192;0.5914336000005278;2593
193;0.594435799999701;2593
194;0.5974292000009882;2593
195;0.6002217000004748;2593
196;0.6033735000000888;2593
197;0.6063764999998966;2593
198;0.6094439000007696;2593
199;0.6124846000002435;2594
200;0.6157010000006267;2594
201;0.6184732000001532;2594
202;0.6215023000004294;2594
203;0.6245340999994369;2595
204;0.627515800000765;2595
205;0.6303225999999995;2595
206;0.6333008000001428;2595
207;0.6365034000009473;2595
208;0.6395147000002908;2595
209;0.6425285000004806;2595
210;0.6455313000005845;2595
211;0.6485708000000159;2594
212;0.651106900000741;2594
213;0.6532968000010442;2594
214;0.656300900000133;2594
215;0.6592896000001929;2594
216;0.6629018000003271;2594
217;0.6669339000000036;2594
218;0.6697388000011415;2594
219;0.6735705000010057;2594
220;0.6765541000004305;2594
221;0.6795452999995177;2594
222;0.6836538999996264;2594
223;0.6865083000011509;2594
224;0.6895048999995197;2593
225;0.6924949000003835;2593
226;0.6954471999997622;2593
227;0.6985311000007641;2593
228;0.7011509000003571;2593
229;0.704534300000887;2592
230;0.7074935000000551;2592
231;0.7105374000002485;2592
232;0.7133247000001575;2592
233;0.7163426999995863;2592
234;0.7193365000002814;2592
235;0.722910899999988;2592
236;0.7268320000002859;2591
237;0.7307502000003296;2591
238;0.7343184000001202;2591
239;0.7376351000002614;2591
240;0.7402326000010362;2590
241;0.7420445999996446;2590
242;0.7441638000000239;2590
243;0.7465185000000929;2590
244;0.7493675000005169;2590
245;0.7521376000004238;2589
246;0.755230799999481;2589
247;0.758294900000692;2589
248;0.7604809000004025;2589
249;0.7633079000006546;2589
250;0.7663551999994525;2588
251;0.7693239000000176;2588
252;0.7730255999995279;2588
253;0.7766618999994535;2588
254;0.7799379999996745;2588
255;0.7834347000007256;2588
256;0.7863237000001391;2587
257;0.7892957000003662;2587
258;0.7923093999997946;2586
259;0.7953567000004114;2586
260;0.7983425000002171;2585
261;0.8011833000000479;2585
262;0.8042968000008841;2585
263;0.8060848000004626;2585
264;0.8093234000007214;2585
265;0.8128950000009354;2584
266;0.8167754000005516;2583
267;0.8196556000002602;2583
268;0.8232358999994176;2583
269;0.8267101000001276;2582
270;0.8296974000004411;2582
271;0.8326608000006672;2582
272;0.8352426000001287;2581
273;0.8383107999998174;2581
274;0.8411752000010893;2580
275;0.8442883000006987;2579
276;0.847442600001159;2578
277;0.8502960999994684;2578
278;0.8532776000010927;2577
279;0.8564681000007113;2577
280;0.859173799999553;2576
281;0.8621051000009174;2576
282;0.8653429999994842;2576
283;0.8681780999995681;2576
284;0.8704471000000922;2576
285;0.8733573000008619;2575
286;0.8764673999994557;2574
287;0.8793366999998398;2574
288;0.8821631999999227;2573
289;0.8841762000010931;2572
290;0.8862384000003658;2572
291;0.8892132000000856;2571
292;0.892289499999606;2571
293;0.8954374999993888;2571
294;0.8983766000001197;2570
295;0.90123339999991;2569
296;0.904310699999769;2568
297;0.9063459999997576;2568
298;0.9090830999994068;2568
299;0.9113111999995454;2567
300;0.914311300000918;2567
301;0.9162171999996644;2567
302;0.9181313999997656;2566
303;0.9211642000009306;2566
304;0.9242312000005768;2565
305;0.9272086000000854;2565
306;0.930272600000535;2564
307;0.9332494999998744;2563
308;0.9363002000009146;2562
309;0.9393018999999185;2561
310;0.9422140999995463;2560
311;0.9452619000003324;2559
312;0.948240400000941;2559
313;0.9511545000004844;2558
314;0.954256400000304;2558
315;0.9571219999997993;2558
316;0.9603335000010702;2557
317;0.9634139000008872;2556
318;0.9664136999999755;2555
319;0.9697587000009662;2554
320;0.9728617000000668;2554
321;0.9766106999995827;2553
322;0.9794858999994176;2552
323;0.9826398000004701;2551
324;0.98673830000007;2550
325;0.9894082999999227;2548
326;0.9921713000003365;2548
327;0.9953151000008802;2547
328;0.9981109000000288;2547
329;1.0011611000008998;2546
330;1.0031787999996595;2545
331;1.0051435000004858;2545
332;1.0073611999996501;2544
333;1.0103896000000532;2543
334;1.0134919000010996;2543
335;1.0164000999993732;2542
336;1.0191973000000871;2541
337;1.0211907000011706;2540
338;1.0243367000002763;2540
339;1.027318300000843;2539
340;1.0303184000003967;2538
341;1.0333255999994435;2537
342;1.0364024000009522;2536
343;1.039188099999592;2535
344;1.0421924000002036;2534
345;1.0453006000007008;2533
346;1.048455300000569;2532
347;1.0511922999994567;2531
348;1.0545019000001048;2531
349;1.0571687999999995;2530
350;1.0604569999995874;2529
351;1.063340300001073;2528
352;1.066164600000775;2527
353;1.0682041000000027;2526
354;1.0713235000002896;2525
355;1.0743861999999353;2524
356;1.0771612000007735;2523
357;1.0794428000008338;2522
358;1.0822355000000243;2521
359;1.0854005000001052;2521
360;1.0885068999996292;2520
361;1.0913258000000496;2519
362;1.0941658000010648;2518
363;1.0973782000000938;2517
364;1.1001417000006768;2516
365;1.1024692000009964;2515
366;1.1053766000004543;2515
367;1.1084750999998505;2514
368;1.1113194000008662;2513
369;1.114502000000357;2512
370;1.1170326999999816;2511
371;1.119339700000637;2510
372;1.122517699999662;2509
373;1.1253648000001704;2508
374;1.128481900001134;2507
375;1.131312400000752;2506
376;1.1341692000005423;2505
377;1.1371935000006488;2504
378;1.1404101999996783;2503
379;1.1435356000001775;2502
380;1.1462866000001668;2501
381;1.1491243000000395;2499
382;1.1511449000008724;2499
383;1.1543770999996923;2498
384;1.1574381999998877;2497
385;1.160358200000701;2495
386;1.1632365000004938;2494
387;1.166272399999798;2493
388;1.1681594000001496;2492
389;1.1701623999997537;2491
390;1.1723235999997996;2490
391;1.1751746000009007;2489
392;1.1775242000003345;2488
393;1.1803223000006255;2487
394;1.1832297000000835;2486
395;1.1851098999995884;2485
396;1.1870975000001636;2484
397;1.1891252999994322;2484
398;1.1911902000010741;2483
399;1.1932154999994964;2482
400;1.1950794000003953;2481
401;1.1970794999997452;2480
402;1.199043900000106;2480
403;1.2010798000010254;2479
404;1.20304059999944;2478
405;1.2050010000002658;2477
406;1.2071875000001455;2477
407;1.210269999999582;2476
408;1.2122780999998213;2475
409;1.2145777999994607;2474
410;1.217218600000706;2473
411;1.2195714000008593;2473
412;1.2225921999997809;2472
413;1.225343600000997;2470
414;1.2283877000008943;2469
415;1.2314485000006243;2468
416;1.234164299999975;2467
417;1.2362240000002203;2466
418;1.2385001000002376;2465
419;1.2413433000001532;2463
420;1.2443676000002597;2462
421;1.2473819999995612;2461
422;1.2501365999996779;2460
423;1.2522396000003937;2458
424;1.2553114000002097;2457
425;1.2583338000004005;2456
426;1.2612953999996535;2455
427;1.2641579999999522;2454
428;1.2671485999999277;2453
429;1.2705384000000777;2452
430;1.2733872000007977;2450
431;1.2762942999997904;2449
432;1.279483899999832;2447
433;1.282333799999833;2446
434;1.2852409000006446;2444
435;1.288322500000504;2443
436;1.2912446999998792;2442
437;1.294343100000333;2441
438;1.297250100000383;2440
439;1.2995203000009496;2439
440;1.3024318999996467;2438
441;1.3051388000003499;2436
442;1.3083299000008992;2435
443;1.3111631000010675;2434
444;1.3143049999998766;2433
445;1.3170506999995268;2432
446;1.3191440999999031;2432
447;1.3223001000005752;2431
448;1.3251975000002858;2430
449;1.328322900000785;2429
450;1.331346200000553;2427
451;1.3341997000006813;2426
452;1.3361086999993859;2425
453;1.3383964000004198;2424
454;1.3413958000001003;2423
455;1.3442852000007406;2421
456;1.3472161999998207;2420
457;1.349270799999431;2419
458;1.3522095999996964;2419
459;1.3542171000008238;2418
460;1.356180000000677;2417
461;1.3580526000005193;2416
462;1.3601128999998764;2415
463;1.362009800001033;2414
464;1.3641562000011618;2414
465;1.3671577999994042;2412
466;1.3701203000000532;2410
467;1.3721650000006775;2409
468;1.3744975000008708;2409
469;1.3773815000004106;2408
470;1.380191600001126;2407
471;1.3833092000004399;2406
472;1.385239700000966;2404
473;1.3875148000006448;2403
474;1.3905119999999442;2402
475;1.3933529000005365;2400
476;1.3962468000008812;2399
477;1.3991944000008516;2398
478;1.4012368000003335;2397
479;1.4032134000008227;2396
480;1.405342300000484;2395
481;1.4081497999995918;2394
482;1.4102414000008139;2394
483;1.4123290999996243;2393
484;1.4152847999994265;2392
485;1.4171623000002;2391
486;1.4203751000004559;2390
487;1.423362300000008;2389
488;1.4263329999994312;2387
489;1.429527500000404;2386
490;1.4323390999998082;2384
491;1.435136899999634;2383
492;1.4382820000009815;2382
493;1.4413598999999522;2381
494;1.444336700000349;2381
495;1.447563400000945;2379
496;1.4503581000008126;2378
497;1.4533633000010013;2377
498;1.4561358999999356;2375
499;1.4583261000007042;2374
500;1.461234800000966;2373
501;1.4642695000002277;2372
502;1.467074500000308;2371
503;1.4691942999997991;2370
504;1.471369599999889;2369
505;1.4743102000011277;2368
506;1.477469100000235;2367
507;1.4803766000004543;2366
508;1.4834754000003159;2364
509;1.486258099999759;2363
510;1.4895070000002306;2362
511;1.4923935000006168;2361
512;1.4952008000000205;2360
513;1.4984117000003607;2359
514;1.5013988999999128;2358
515;1.5044459000000643;2357
516;1.507402600000205;2356
517;1.5105036000004475;2354
518;1.513402099999439;2353
519;1.5160211000002164;2352
520;1.5181986000006873;2351
521;1.5202083000003768;2350
522;1.5234070000005886;2350
523;1.5263574000000517;2349
524;1.529522500000894;2348
525;1.5321831000001112;2347
526;1.5353764000010415;2346
527;1.538411499999711;2345
528;1.5413539000001037;2344
529;1.544531100000313;2344
530;1.5473786000002292;2342
531;1.55067710000003;2341
532;1.553315900000598;2340
533;1.556324900000618;2339
534;1.559360100000049;2338
535;1.5623790999998164;2337
536;1.5655396000001929;2336
537;1.568424099999902;2335
538;1.571542400000908;2334
539;1.5743963000004442;2333
540;1.5772255000010773;2331
541;1.580448200000319;2330
542;1.5831918000003498;2329
543;1.585160700000415;2328
544;1.587375000000975;2328
545;1.5905550999996194;2327
546;1.5935079999999289;2325
547;1.5962165000000823;2324
548;1.59956129999955;2323
549;1.602219899999909;2322
550;1.6053895999993983;2321
551;1.6083856000004744;2320
552;1.6111820999994961;2319
553;1.6143259000000398;2318
554;1.6172303000003012;2317
555;1.6191589000009117;2316
556;1.622334800000317;2315
557;1.6252506000000722;2314
558;1.6283462000010331;2313
559;1.6312412000006589;2312
560;1.6341788999998244;2311
561;1.6373631000005844;2311
562;1.6401905000002444;2310
563;1.6433150000011665;2309
564;1.6461756999997306;2308
565;1.6492818999995507;2307
566;1.6523396000011417;2307
567;1.6552205000007234;2306
568;1.657225400000243;2305
569;1.6591332999996666;2304
570;1.6610810000001948;2304
571;1.6630937999998423;2304
572;1.66512689999945;2303
573;1.6670936000009533;2302
574;1.6690753000002587;2302
575;1.6711761000005936;2302
576;1.674255699999776;2301
577;1.6772357000008924;2300
578;1.6790977000000566;2299
579;1.6812577000000601;2299
580;1.6844897999999375;2298
581;1.6871016000004602;2297
582;1.6891771000009612;2296
583;1.6922911000001477;2296
584;1.694151800000327;2295
585;1.6972989999994752;2295
586;1.700171300000875;2294
587;1.7033193999996001;2293
588;1.7066279000009672;2292
589;1.7093481000010797;2291
590;1.7126903999997012;2290
591;1.7152621000004729;2290
592;1.7186591000008775;2289
593;1.7215412000005017;2289
594;1.7245598999998037;2288
595;1.7273146999996243;2287
596;1.7302342000002682;2287
597;1.733317199999874;2286
598;1.7350786000006337;2285
599;1.7371671000000788;2285
600;1.740359499999613;2285
601;1.7433765999994648;2284
602;1.7462833000008686;2284
603;1.7493006000004243;2283
604;1.7511943000008614;2283
605;1.7544049000007362;2282
606;1.7572452000003977;2282
607;1.7604190000001836;2281
608;1.7633894000009604;2281
609;1.7663587999995798;2281
610;1.7692250000000058;2280
611;1.7723630000000412;2280
612;1.7751965000006749;2279
613;1.778401900000972;2279
614;1.7815695000008418;2278
615;1.784210499999972;2277
616;1.787358999999924;2277
617;1.7903456000003644;2276
618;1.7933768000002601;2275
619;1.7962762000006478;2275
620;1.7991777999995975;2275
621;1.8023548000001028;2274
622;1.8051680000007764;2274
623;1.8072733000008157;2273
624;1.8102763000006235;2272
625;1.8137347000010777;2272
626;1.817169500000091;2271
627;1.8195969000007608;2271
628;1.8227609999994456;2271
629;1.825400300000183;2270
630;1.8284005000004981;2270
631;1.8312645999994857;2270
632;1.83312769999975;2270
633;1.8354278000006161;2270
634;1.8383073000004515;2269
635;1.841489399999773;2269
636;1.845481700000164;2269
637;1.8486604999998235;2268
638;1.8513782000009087;2268
639;1.8544629999996687;2268
640;1.8576181000007637;2268
641;1.8606601999999839;2268
642;1.864362100001017;2268
643;1.8672841000006883;2268
644;1.870340600000418;2268
645;1.8734573000001546;2267
646;1.8762712000007014;2267
647;1.8791999999994005;2267
648;1.8823990000000776;2267
649;1.8853128999999171;2268
650;1.8884152000009635;2267
651;1.8911944000010408;2267
652;1.8943431000006967;2267
653;1.8974080000007234;2266
654;1.9001454999997804;2266
655;1.9034100999997463;2266
656;1.905482899999697;2266
657;1.9083683000008023;2266
658;1.911266400000386;2266
659;1.9130992000009428;2266
660;1.916410600000745;2266
661;1.9191200000004756;2266
662;1.921239000001151;2266
663;1.9243134000007558;2266
664;1.926178699999582;2266
665;1.9293106000004627;2266
666;1.93208340000092;2266
667;1.9341965000003256;2265
668;1.93615680000039;2266
669;1.9385313000002498;2266
670;1.9413270999993983;2265
671;1.9443148999998812;2266
672;1.9475345999999263;2266
673;1.9501815000003262;2266
674;1.9531270999996195;2266
675;1.95633430000089;2266
676;1.9591622000007192;2266
677;1.9621910999994725;2266
678;1.9652076000002126;2266
679;1.9671481999994285;2267
680;1.9693671000004542;2267
681;1.9725450000005367;2267
682;1.9754059999995661;2267
683;1.9783499000004667;2267
684;1.98139749999973;2268
685;1.984175100000357;2267
686;1.9864317999999912;2267
687;1.9893940000001749;2267
688;1.9923756000007415;2268
689;1.9943939999993745;2268
690;1.997251700000561;2269
691;2.0000896000001376;2269
692;2.0021840000008524;2269
693;2.004361000001154;2269
694;2.0072385000003123;2269
695;2.010404300001028;2269
696;2.013199999999415;2270
697;2.016423900000518;2270
698;2.0192683999994188;2270
699;2.0222209000003204;2271
700;2.0252092000009725;2271
701;2.0280925999995816;2271
702;2.0313532000000123;2272
703;2.0341317000002164;2272
704;2.0362332000004244;2272
705;2.038506700000653;2273
706;2.0412895000008575;2273
707;2.0443880000002537;2273
708;2.0473701000009896;2274
709;2.050148399999671;2274
710;2.052186900000379;2274
711;2.0552313000007416;2274
712;2.058326800000941;2274
713;2.0615094999993744;2275
714;2.064401200001157;2276
715;2.0671949999996286;2276
716;2.0690984000011667;2277
717;2.07233769999948;2277
