;time;amplitude
0;0.005491900001288741;2421
1;0.010269700000208104;2413
2;0.015331400001741713;2407
3;0.020323000000644242;2399
4;0.02480439999999362;2392
5;0.029639400001542526;2386
6;0.03422600000158127;2379
7;0.0393820000008418;2372
8;0.04413640000166197;2364
9;0.04895040000155859;2357
10;0.05296760000055656;2349
11;0.05696830000124464;2343
12;0.061003200000413926;2337
13;0.06603630000063276;2330
14;0.07084760000179813;2322
15;0.07485410000117554;2316
16;0.07841110000117624;2310
17;0.08257830000002286;2305
18;0.0864928000009968;2299
19;0.09097510000174225;2293
20;0.09460400000170921;2287
21;0.09896310000112862;2282
22;0.1028773000016372;2275
23;0.10803700000178651;2269
24;0.11250900000050024;2261
25;0.11706620000040857;2256
26;0.1219427000014548;2248
27;0.12697580000167363;2242
28;0.13043820000166306;2236
29;0.13336680000065826;2231
30;0.1369077000017569;2226
31;0.14096800000152143;2221
32;0.1446529000004375;2215
33;0.14885620000131894;2209
34;0.1539165000012872;2203
35;0.1579202000011719;2198
36;0.16245410000010452;2191
37;0.16528830000061134;2186
38;0.1687632000011945;2182
39;0.1726053000002139;2176
40;0.17690280000169878;2171
41;0.18080180000106338;2165
42;0.18484340000031807;2160
43;0.18884630000138714;2155
44;0.19285770000169578;2149
45;0.19629520000125922;2144
46;0.19929120000051626;2140
47;0.2037947000007989;2135
48;0.20782950000102574;2130
49;0.21151560000180325;2126
50;0.21528250000119442;2122
51;0.21875050000016927;2118
52;0.2228084000016679;2114
53;0.22694160000173724;2109
54;0.2307161000007909;2104
55;0.23489100000006147;2099
56;0.23886420000053477;2094
57;0.24277420000180427;2090
58;0.24674900000172784;2085
59;0.25075270000161254;2081
60;0.25445590000163065;2077
61;0.258821600000374;2073
62;0.2623496000014711;2068
63;0.26576920000115933;2065
64;0.2697782000013831;2062
65;0.27475930000036897;2057
66;0.278334000000541;2052
67;0.2818245000016759;2048
68;0.2858449000013934;2045
69;0.2898560000012367;2040
70;0.2934779000006529;2036
71;0.2963775000007445;2032
72;0.3008915000009438;2030
73;0.3044749000000593;2025
74;0.3073074000003544;2022
75;0.3108151000014914;2019
76;0.3148705000003247;2016
77;0.31885450000118;2013
78;0.32342720000087866;2009
79;0.3267702000011923;2005
80;0.3305472000010923;2002
81;0.3345794000015303;1999
82;0.33859080000001995;1996
83;0.3428291000000172;1993
84;0.346525400000246;1990
85;0.35082560000046215;1987
86;0.35463240000171936;1984
87;0.3588640000016312;1981
88;0.3622847000006004;1979
89;0.365766300001269;1977
90;0.3698204000011174;1975
91;0.3738271000001987;1972
92;0.37777550000100746;1969
93;0.3818118000017421;1967
94;0.3857692000001407;1965
95;0.38987900000029185;1962
96;0.3933849000004557;1960
97;0.3965226000000257;1959
98;0.4007586000006995;1957
99;0.40483040000071924;1955
100;0.40869220000058704;1952
101;0.41216390000045067;1951
102;0.4152042000005167;1949
103;0.4194699000017863;1948
104;0.42346380000162753;1947
105;0.42740110000158893;1945
106;0.4305229000001418;1944
107;0.43349880000096164;1943
108;0.4362801000006584;1942
109;0.43930290000025707;1941
110;0.4422824000012042;1939
111;0.4453447000014421;1939
112;0.4483633000018017;1938
113;0.4513643000009324;1937
114;0.4543717000015022;1936
115;0.45740810000097554;1936
116;0.4603811000015412;1935
117;0.4633675000004587;1935
118;0.4663612000003923;1934
119;0.4693613000017649;1934
120;0.4723635000009381;1934
121;0.4752327000005607;1933
122;0.4780121000003419;1933
123;0.4813499000010779;1933
124;0.48435390000122425;1932
125;0.48735450000094716;1932
126;0.49029110000083165;1931
127;0.49334690000068804;1931
128;0.4963167000005342;1931
129;0.499330500000724;1930
130;0.5023248000015883;1931
131;0.5053500000012718;1931
132;0.5083292000017536;1931
133;0.5110268000007636;1931
134;0.514330300000438;1932
135;0.517331800001557;1932
136;0.5203269000012369;1932
137;0.5230638000011822;1932
138;0.5263325000014447;1932
139;0.5293319000011252;1933
140;0.5323291000004247;1933
141;0.5353412000004028;1933
142;0.5381784000001062;1934
143;0.5413419000014983;1934
144;0.5441403000004357;1935
145;0.5473428000004787;1935
146;0.5503459999999905;1936
147;0.5531587000004947;1936
148;0.5561159000008047;1937
149;0.5593409000011889;1938
150;0.5623298000009527;1939
151;0.5652993000003335;1940
152;0.5683152000001428;1941
153;0.5713051000002451;1942
154;0.5743125000008149;1943
155;0.5773569000011776;1944
156;0.5803096000017831;1945
157;0.5833019000001514;1946
158;0.5863074000008055;1947
159;0.5892988000014157;1949
160;0.5923023000013927;1950
161;0.5953058000013698;1951
162;0.5983095000010508;1953
163;0.6010670000014215;1954
164;0.6043052000004536;1955
165;0.6072988000014448;1956
166;0.6103115000005346;1958
167;0.6132993000010174;1959
168;0.6161985000017012;1961
169;0.6193078000014793;1962
170;0.6223023000002286;1964
171;0.6253089000001637;1966
172;0.6280796000010014;1967
173;0.6313098000009632;1969
174;0.6340363000017533;1971
175;0.6372989000010421;1973
176;0.6403127000012319;1975
177;0.6432984000002762;1977
178;0.6462809000004199;1979
179;0.6493110000010347;1981
180;0.6523044000005029;1982
181;0.6551560000007157;1984
182;0.658301900000879;1985
183;0.6610342000003584;1987
184;0.6643164000015531;1990
185;0.6673048000011477;1992
186;0.6703027000003203;1994
187;0.6732265000009647;1997
188;0.6762261000003491;1999
189;0.6793168000003789;2002
190;0.6823125000009895;2005
191;0.6853147000001627;2007
192;0.6883074000015768;2010
193;0.6913148000003275;2012
194;0.6941020000012941;2015
195;0.6973037000007025;2017
196;0.7003024000005098;2020
197;0.7032992000004015;2023
198;0.706306100000802;2025
199;0.7093015000009473;2028
200;0.7132011000012426;2031
201;0.7159512000016548;2034
202;0.7180855000005977;2037
203;0.7200499000009586;2039
204;0.7230885000008129;2041
205;0.7250532000016392;2044
206;0.7281311000006099;2047
207;0.730981900000188;2050
208;0.7344230000016978;2053
209;0.7374020000006567;2057
210;0.7402827000005345;2060
211;0.7430425000002288;2063
212;0.7452018000003591;2065
213;0.7480847000006179;2067
214;0.7500481000006403;2070
215;0.7519848000010825;2072
216;0.7550675000002229;2074
217;0.7579839000009088;2077
218;0.7609007000010024;2080
219;0.7630670000016835;2084
220;0.7661028000002261;2086
221;0.7680701000008412;2090
222;0.7699981000005209;2092
223;0.7730942000016512;2094
224;0.7750761000006605;2097
225;0.7770842000008997;2100
226;0.7800633000006201;2102
227;0.7830936000009387;2106
228;0.786531500001729;2109
229;0.7895642000003136;2113
230;0.7935297000003629;2117
231;0.7965120000008028;2121
232;0.7992913000016415;2126
233;0.8022887000006449;2129
234;0.8051739000002271;2133
235;0.8082848000012746;2136
236;0.8111172000008082;2140
237;0.8142096999999922;2144
238;0.817208300000857;2148
239;0.8202483000004577;2152
240;0.8231100000011793;2156
241;0.8260951000011119;2159
242;0.8291988000000856;2163
243;0.8322353000003204;2167
244;0.8351589000012609;2171
245;0.8382699000012508;2175
246;0.8411630000009609;2179
247;0.8439243000011629;2183
248;0.8462480000016512;2187
249;0.8492670000014186;2191
250;0.852229800000714;2195
251;0.8553231000005326;2199
252;0.8582656000016868;2203
253;0.8610151000011683;2207
254;0.8642928000008396;2210
255;0.867292400000224;2215
256;0.8702638000013394;2219
257;0.8732768000008946;2223
258;0.8763318000001163;2227
259;0.879337200000009;2231
260;0.8823341000006621;2235
261;0.8853318000001309;2240
262;0.888393700000961;2244
263;0.8912395000006654;2248
264;0.8941118000002461;2252
265;0.8973179000004166;2256
266;0.9003824000010354;2261
267;0.9033595000000787;2266
268;0.906322500000897;2270
269;0.9093778000005841;2274
270;0.9123548000006849;2279
271;0.9153250000017579;2283
272;0.9183471000014833;2288
273;0.921376300000702;2292
274;0.9250811000001704;2298
275;0.9281316000015067;2302
276;0.9312465000002703;2307
277;0.9343324000001303;2312
278;0.9373510000004899;2317
279;0.9403358000017761;2321
280;0.9433314000016253;2326
281;0.9462299000006169;2331
282;0.9492394000008062;2335
283;0.9521870000007766;2339
284;0.9552609000002121;2343
285;0.9582071000004362;2348
286;0.96102300000166;2353
287;0.9643173000004026;2357
288;0.9673336000014388;2363
289;0.9703218000013294;2367
290;0.9733425000013085;2372
291;0.9763531000007788;2376
292;0.9793599000004178;2381
293;0.9823210000013205;2386
294;0.9853441000013845;2390
295;0.9883409000012762;2395
296;0.9913806000004115;2399
297;0.994075900000098;2404
298;0.9973703000014211;2407
299;1.0003571000015654;2413
300;1.0033798000004026;2418
301;1.0063451000005443;2422
302;1.0093367000008584;2427
303;1.012358400001176;2432
304;1.015373100000943;2437
305;1.0184093000007124;2442
306;1.0211321000006137;2446
307;1.024106100001518;2451
308;1.0273697000011452;2456
309;1.0303285000009055;2461
310;1.0333470000005036;2466
311;1.0363536000004387;2470
312;1.0393757000001642;2475
313;1.0423563000003924;2479
314;1.0451763000000938;2483
315;1.0483212000017375;2487
316;1.0513822000011714;2492
317;1.05437830000119;2497
318;1.0573961000009149;2502
319;1.0603872000010597;2507
320;1.063361200000145;2511
321;1.0663205000000744;2516
322;1.0693517000017891;2521
323;1.072193600000901;2525
324;1.075269400000252;2529
325;1.078141300000425;2534
326;1.081355900001654;2539
327;1.08437000000049;2543
328;1.087228000000323;2548
329;1.0901078000006237;2551
330;1.0930991000004724;2556
331;1.096058000000994;2560
332;1.0997106000013446;2564
333;1.1031585000000632;2570
334;1.1066012000010232;2575
335;1.110720399999991;2580
336;1.1146352000014303;2587
337;1.11862260000089;2593
338;1.122656100000313;2600
339;1.1266386000006605;2605
340;1.1295875000014348;2611
341;1.1339303000004293;2616
342;1.1376082000006136;2622
343;1.1416626000009273;2627
344;1.1454007000011188;2633
345;1.1496064000002661;2638
346;1.1536515000007057;2644
347;1.1576568000000407;2651
348;1.1612275000006775;2656
349;1.165679400000954;2662
350;1.1685479000007035;2667
351;1.172658200001024;2672
352;1.1766575000001467;2677
353;1.179592300000877;2682
354;1.1836092000012286;2686
355;1.18765120000171;2691
356;1.191636200001085;2696
357;1.1953798000013194;2702
358;1.1985849000011513;2707
359;1.2026504000004934;2711
360;1.2066384000008838;2717
361;1.2107143000012002;2722
362;1.2146275000013702;2727
363;1.2186648000006244;2732
364;1.2226518000006763;2737
365;1.2266496000011102;2742
366;1.2291014000002178;2747
367;1.2325780000010127;2750
368;1.236662700001034;2755
369;1.2406530000007479;2760
370;1.2442174000007071;2765
371;1.247565100000429;2770
372;1.2516499000012118;2774
373;1.2556428000007145;2779
374;1.259657500000685;2784
375;1.2625782000013714;2788
376;1.2666600000011385;2792
377;1.2706527000009373;2796
378;1.2746338000015385;2801
379;1.277542400001039;2804
380;1.280580700000428;2806
381;1.2846490000010817;2810
382;1.2886434000010922;2814
383;1.2921463000002404;2818
384;1.295309700000871;2821
385;1.2996485000003304;2825
386;1.3036603000000468;2829
387;1.307296300001326;2833
388;1.3105857000009564;2835
389;1.3135879000001296;2838
390;1.3176568000017141;2841
391;1.321638500001427;2845
392;1.3246022000002995;2848
393;1.328192200000558;2851
394;1.3312286000000313;2855
395;1.3345693000010215;2858
396;1.3382429000012053;2861
397;1.3431201000003057;2864
398;1.3464862000000721;2868
399;1.3506696000004013;2871
400;1.3546610000012151;2875
401;1.3586586000001262;2878
402;1.361175000000003;2881
403;1.3645803000017622;2883
404;1.3686538000001747;2885
405;1.372638700000607;2888
406;1.3761243000008108;2891
407;1.3796182000005501;2893
408;1.3836518000007345;2896
409;1.387640900000406;2898
410;1.3915809000009176;2901
411;1.395443700001124;2903
412;1.3996677000013733;2905
413;1.4036535000013828;2907
414;1.407215900000665;2909
415;1.4106783000006544;2910
416;1.414648700001635;2912
417;1.418659500001013;2914
418;1.4226358000014443;2916
419;1.4266605000011623;2918
420;1.4295866000011301;2920
421;1.4336612000006426;2921
422;1.4376546000003145;2923
423;1.4416394000018045;2925
424;1.4455714000014268;2926
425;1.4496648000003916;2928
426;1.4536822000009124;2929
427;1.4561286000007385;2930
428;1.4595945000000938;2930
429;1.4621827000009944;2931
430;1.465295400001196;2932
431;1.4691337000003841;2933
432;1.4723890000004758;2933
433;1.4761901000001671;2934
434;1.4792549000012514;2934
435;1.4831942000000709;2935
436;1.4862340000017866;2936
437;1.4892910000016855;2936
438;1.4922753000009834;2936
439;1.4952198000009957;2936
440;1.4983372000006057;2937
441;1.5013361000001169;2936
442;1.5043268000008538;2936
443;1.5073580000007496;2937
444;1.5103579000005993;2937
445;1.5131508000013127;2936
446;1.5163612000014837;2936
447;1.5193618000012066;2936
448;1.5223483000008855;2936
449;1.525364900000568;2935
450;1.5281249000017851;2935
451;1.5313671000003524;2935
452;1.5343537000007927;2935
453;1.5373111000008066;2935
454;1.5403518000002805;2935
455;1.5433614000012312;2934
456;1.5463601000010385;2934
457;1.5493524000012258;2934
458;1.5523373000014544;2934
459;1.555359200001476;2934
460;1.5584673000012117;2933
461;1.561026600000332;2933
462;1.5643633000017871;2932
463;1.5673448000015924;2931
464;1.570363400000133;2931
465;1.5733321000006981;2929
466;1.5763616000003822;2929
467;1.5793608000003587;2928
468;1.5823588000002928;2927
469;1.5853658000014548;2926
470;1.5883635000009235;2925
471;1.5922300000001997;2924
472;1.5951846000007208;2923
473;1.5983654999999999;2923
474;1.6013594000014564;2922
475;1.6043533000010939;2920
476;1.6073609000013676;2919
477;1.6103415000015957;2918
478;1.6133482000004733;2917
479;1.6163587000010011;2916
480;1.619356200000766;2914
481;1.622117300001264;2913
482;1.625357000000804;2911
483;1.628213500000129;2910
484;1.6313539000002493;2909
485;1.6343636000001425;2907
486;1.6373433000007935;2905
487;1.6403567000015755;2904
488;1.6433665000004112;2902
489;1.6462069000008341;2901
490;1.6493554000007862;2899
491;1.6522928000013053;2897
492;1.6553609000002325;2896
493;1.6583221000000776;2894
494;1.661046900000656;2892
495;1.664358700001685;2890
496;1.6673251000011078;2888
497;1.670389000000796;2886
498;1.673366300001362;2883
499;1.6763674000012543;2880
500;1.679358500001399;2878
501;1.6823498000012478;2876
502;1.685356400001183;2874
503;1.6883594000009907;2871
504;1.691349500000797;2869
505;1.6940746000000217;2867
506;1.6973588000000746;2864
507;1.7001181000014185;2861
508;1.703360800000155;2859
509;1.7063520000010612;2856
510;1.7093505000011646;2853
511;1.7123593000014807;2851
512;1.7153614000017114;2849
513;1.7183560000012221;2847
514;1.7213475000007747;2844
515;1.7243661000011343;2842
516;1.7272072000014305;2839
517;1.7303486000000703;2836
518;1.7333558000009361;2833
519;1.7363312000015867;2830
520;1.739363600001525;2827
521;1.742360500000359;2825
522;1.7453683000003366;2822
523;1.7483945000003587;2819
524;1.7513686000002053;2817
525;1.7543625000016618;2813
526;1.7571804000017437;2810
527;1.7603540000000066;2808
528;1.7632592000009026;2804
529;1.7663213000014366;2801
530;1.7693668000010803;2798
531;1.7723569000008865;2794
532;1.7753398000004381;2791
533;1.7780344000002515;2789
534;1.7813589000015781;2786
535;1.784358400000201;2783
536;1.787363400000686;2778
537;1.7903587000000698;2775
538;1.793346600001314;2771
539;1.7963779000001523;2768
540;1.7993629000011424;2764
541;1.802324200001749;2761
542;1.8053276000009646;2758
543;1.808358500000395;2754
544;1.8123637000007875;2750
545;1.815362000001187;2746
546;1.8183365000004414;2742
547;1.8213700000014796;2738
548;1.824359000000186;2735
549;1.827160400000139;2731
550;1.830398400001286;2727
551;1.8333810000003723;2723
552;1.8364748000003601;2719
553;1.839452900001561;2715
554;1.8424063000002207;2712
555;1.845383400001083;2708
556;1.8483116000006703;2705
557;1.8513140000013664;2701
558;1.8543062000007922;2697
559;1.8571985000016866;2693
560;1.8601953000015783;2689
561;1.8633566000007704;2685
562;1.866255300001285;2680
563;1.869271800000206;2676
564;1.8723618000003626;2672
565;1.8751173000000563;2667
566;1.8781717000001663;2663
567;1.8812711000009585;2659
568;1.8843391000009433;2655
569;1.887334800001554;2650
570;1.8903415000004316;2646
571;1.893360500000199;2641
572;1.8963617000008526;2637
573;1.899329800000487;2633
574;1.902334400001564;2629
575;1.9053554000001895;2624
576;1.9083329000004596;2619
577;1.9110710000004474;2615
578;1.9143544000016846;2611
579;1.9173359000014898;2607
580;1.9203334000012546;2602
581;1.9242027000000235;2596
582;1.9271421000012197;2591
583;1.9303353000013885;2587
584;1.9333363000005193;2582
585;1.9363464000016393;2577
586;1.9393506000014895;2573
587;1.9423325000007026;2569
588;1.9453428000015265;2565
589;1.9483565000009548;2560
590;1.9513580000002548;2556
591;1.954103700001724;2551
592;1.9573349000002054;2547
593;1.960298400001193;2541
594;1.9633694000003743;2537
595;1.9663392000002204;2532
596;1.9691360000015266;2528
597;1.9723677000001771;2524
598;1.9753309000006993;2519
599;1.978359000000637;2515
600;1.9813446000007389;2510
601;1.9843031000000337;2506
602;1.9871302999999898;2502
603;1.9900410000009288;2497
604;1.9933788000016648;2492
605;1.9964249000004202;2487
606;1.999202900000455;2482
607;2.0021787000005133;2477
608;2.005165600001419;2472
609;2.008208500001274;2467
610;2.0110849000011513;2463
611;2.0142288000006374;2459
612;2.0171657000009873;2453
613;2.0202413000006345;2449
614;2.023229900001752;2444
615;2.026145900001211;2439
616;2.02923710000141;2434
617;2.0323626000008517;2429
618;2.035328700001628;2424
619;2.0383486000009725;2420
620;2.0413051000014093;2415
621;2.0440893000013602;2410
622;2.046302900000228;2406
623;2.0493488000010984;2402
624;2.0523278000000573;2398
625;2.0553265000016836;2392
626;2.058334700001069;2389
627;2.0610516000015195;2384
628;2.0643482000014046;2380
629;2.0674154000007547;2374
630;2.0703681000013603;2369
631;2.07342349999999;2365
632;2.076413100001446;2361
633;2.079242100000556;2357
634;2.082412400000976;2352
635;2.08537250000154;2347
636;2.0883849000001646;2342
637;2.0913599000014074;2338
638;2.094143800000893;2334
639;2.0973755000013625;2329
640;2.1003838000015094;2325
641;2.1033703000011883;2320
642;2.106370200001038;2315
643;2.109381400001439;2311
644;2.112373000001753;2306
645;2.1153706000004604;2301
646;2.1183809000012843;2297
647;2.1213831000004575;2292
648;2.124383400001534;2287
649;2.127143400000932;2282
650;2.1303817000007257;2278
651;2.133369800001674;2273
652;2.1363943000014842;2269
653;2.13934750000044;2264
654;2.1424059000000852;2260
655;2.1453971000009915;2255
656;2.148367600000711;2250
657;2.1514085000017076;2246
658;2.1543787000009615;2240
659;2.1573700000008103;2236
660;2.160416600001554;2232
661;2.1633737000011024;2228
662;2.1663671000005706;2224
663;2.169411000000764;2219
664;2.1722097000001668;2213
665;2.1753727000013896;2210
666;2.178196000000753;2205
667;2.181372300001385;2201
668;2.1844074000000546;2196
669;2.1873644000006607;2192
670;2.190377200000512;2188
671;2.193370600001799;2184
672;2.196369900000718;2180
673;2.1993704000014986;2175
674;2.202309800000876;2171
675;2.2053815000017494;2167
676;2.208388000000923;2163
677;2.2111359000009543;2159
678;2.214370900001086;2155
679;2.217388100001699;2151
680;2.22041210000134;2147
681;2.223372100001143;2144
682;2.2263824000001478;2141
683;2.229253500001505;2137
684;2.232373600001665;2133
685;2.2353695000001608;2129
686;2.2383784000012383;2125
687;2.241375000001426;2121
688;2.244165100000828;2117
689;2.2473717000011675;2114
690;2.2499937000011414;2110
691;2.2521309000003384;2107
692;2.255386600001657;2104
693;2.258127400000376;2100
694;2.261180900000909;2096
695;2.2643716000002314;2093
696;2.2673965000012686;2089
697;2.2704029000015;2085
698;2.273370100001557;2082
699;2.2763728000008996;2078
700;2.279224500000055;2075
701;2.2822608000005857;2072
702;2.2853857000009157;2068
703;2.2883850000016537;2064
704;2.291379700000107;2060
705;2.2941235000016604;2057
706;2.2974197000003187;2053
707;2.300375200000417;2050
708;2.303383100001156;2047
709;2.3063821000014286;2044
710;2.3093734000012773;2041
711;2.312216800000897;2038
712;2.3154040000008536;2035
713;2.3183958000008715;2032
714;2.321228600001632;2029
715;2.324354400001539;2026
716;2.3269845000013447;2023
717;2.3303511000012804;2021
718;2.3337552000011783;2017
719;2.337617900000623;2014
