;time;amplitude
0;0.002592900000308873;1997
1;0.006086900000809692;1988
2;0.00999709999996412;1976
3;0.013668500001585926;1964
4;0.017158100001324783;1954
5;0.021112899999934598;1944
6;0.024705700001504738;1932
7;0.028120400000261725;1922
8;0.0316465000014432;1911
9;0.034555400001409;1901
10;0.03799070000059146;1893
11;0.040996800000357325;1883
12;0.04494460000023537;1873
13;0.047667100001490326;1863
14;0.05060880000019097;1856
15;0.0536909000002197;1847
16;0.05717720000029658;1838
17;0.061127200000555604;1829
18;0.0648895000012999;1817
19;0.06815439999991213;1808
20;0.07117319999997562;1801
21;0.07480710000163526;1791
22;0.07777680000071996;1783
23;0.08168550000118557;1773
24;0.08458010000140348;1765
25;0.0877401000016107;1757
26;0.09073460000035993;1749
27;0.09374030000071798;1741
28;0.0966814000003069;1734
29;0.09977080000135174;1727
30;0.10271590000047581;1719
31;0.10574050000104762;1712
32;0.10875360000136425;1704
33;0.11192190000110713;1698
34;0.11493490000066231;1690
35;0.11890310000126192;1683
36;0.12285700000029465;1674
37;0.12718090000089433;1666
38;0.13051020000057179;1656
39;0.13397970000005444;1648
40;0.13695450000159326;1642
41;0.1397848000015074;1635
42;0.14279140000144253;1629
43;0.14579030000095372;1623
44;0.1487477000009676;1617
45;0.15174740000111342;1610
46;0.15474650000032852;1604
47;0.15738039999996545;1598
48;0.16077320000113104;1594
49;0.163439500000095;1587
50;0.16676940000070317;1582
51;0.16976680000152555;1576
52;0.17276510000010603;1571
53;0.17575759999999718;1565
54;0.17844120000154362;1560
55;0.1817578999998659;1555
56;0.184747300001618;1549
57;0.18774730000041018;1545
58;0.1907523999998375;1540
59;0.19347530000050028;1535
60;0.19643340000038734;1531
61;0.19949420000011742;1526
62;0.20250680000026478;1521
63;0.20545170000150392;1517
64;0.20913660000042;1512
65;0.21316990000013902;1507
66;0.21601580000060494;1503
67;0.22005930000159424;1499
68;0.22406899999987218;1493
69;0.22806110000055924;1488
70;0.23201740000149584;1483
71;0.23606350000045495;1478
72;0.24006740000004356;1473
73;0.24297670000123617;1468
74;0.24703100000078848;1465
75;0.25104670000109763;1461
76;0.2550645999999688;1457
77;0.2588247000003321;1453
78;0.26198140000087733;1449
79;0.26606510000056005;1446
80;0.2700666000000638;1443
81;0.27283150000039313;1441
82;0.2770741000003909;1439
83;0.2806246000000101;1435
84;0.2840302000004158;1433
85;0.28761000000122294;1430
86;0.29101230000014766;1428
87;0.2952106000011554;1426
88;0.2974939000014274;1425
89;0.30047560000093654;1424
90;0.3035070000005362;1423
91;0.30695379999997385;1422
92;0.31107220000012603;1420
93;0.3135316000007151;1419
94;0.31699830000070506;1419
95;0.3209959000014351;1418
96;0.32505310000124155;1418
97;0.32898410000052536;1417
98;0.33199810000041907;1417
99;0.336228400001346;1417
100;0.3395994000002247;1417
101;0.3429104000006191;1417
102;0.3467355000011594;1417
103;0.3499459000013303;1418
104;0.3529140999999072;1419
105;0.3571914000003744;1419
106;0.3594948000009026;1420
107;0.36246830000163754;1421
108;0.3644811000012851;1422
109;0.3675457000008464;1423
110;0.37069350000092527;1423
111;0.3737890000011248;1425
112;0.3778580000016518;1426
113;0.3805339000009553;1428
114;0.3841437999999471;1429
115;0.3870542000004207;1431
116;0.3907122000000527;1432
117;0.3939872999999352;1435
118;0.3976209000011295;1437
119;0.40087620000122115;1439
120;0.40379140000004554;1442
121;0.4065269000002445;1444
122;0.409742499999993;1446
123;0.4134683000011137;1449
124;0.4158909000016138;1452
125;0.4185467000006611;1454
126;0.4218564000002516;1456
127;0.42488480000065465;1460
128;0.42799660000127915;1462
129;0.4305967000000237;1466
130;0.4338471000010031;1468
131;0.43664119999994;1472
132;0.4396139000000403;1475
133;0.44256529999984195;1478
134;0.4454352000011568;1482
135;0.4474919000003865;1485
136;0.4505659000005835;1488
137;0.4535051000002568;1491
138;0.45661850000033155;1496
139;0.45954640000127256;1499
140;0.4626029000010021;1504
141;0.4658076000014262;1508
142;0.4685392999999749;1512
143;0.4715444000012212;1517
144;0.47450470000148925;1521
145;0.47763490000033926;1525
146;0.48044470000058936;1530
147;0.4834740000005695;1535
148;0.486576100000093;1539
149;0.489600300001257;1545
150;0.49262110000017856;1549
151;0.49574089999987336;1554
152;0.4985962999999174;1560
153;0.5015125000008993;1565
154;0.5046165000003384;1571
155;0.5075271000005159;1576
156;0.5106319000005897;1582
157;0.5134524000004603;1588
158;0.5165821999999025;1593
159;0.5237128000007942;1607
160;0.5276475999999093;1614
161;0.5310604000005696;1622
162;0.5347439000015584;1629
163;0.549679700001434;1639
164;0.5585040000005392;1677
165;0.586719599999924;1698
166;0.5904094000015903;1759
167;0.5923931000015727;1766
168;0.5944900000013149;1771
169;0.5963979000007384;1776
170;0.6073777000001428;1794
171;0.6094004000005953;1811
172;0.6125097000003734;1816
173;0.6175173000010545;1831
174;0.6203113999999914;1838
175;0.6234950000016397;1846
176;0.6262667000009969;1855
177;0.6282719999999244;1861
178;0.6315164000006916;1870
179;0.6348745000013878;1878
180;0.6388843000004272;1889
181;0.6418522000003577;1899
182;0.6448089000004984;1907
183;0.647582900000998;1915
184;0.6505747999999585;1923
185;0.6537029999999504;1932
186;0.6569307000008848;1941
187;0.659580300000016;1952
188;0.6625430000003689;1959
189;0.6644672000002174;1967
190;0.6677347000004374;1973
191;0.6705236000016157;1983
192;0.6734479000006104;1992
193;0.6766579000013735;2002
194;0.6797037000014825;2009
195;0.6818398000013985;2018
196;0.6845612000015535;2026
197;0.6876231000005646;2034
198;0.690866000000824;2044
199;0.6935375000011845;2054
200;0.6966707000010501;2062
201;0.69999370000005;2072
202;0.7029354000005696;2083
203;0.7070100000000821;2093
204;0.7099170000001322;2104
205;0.7125289000014163;2114
206;0.7155613000013545;2121
207;0.7185808000012912;2131
208;0.7216601000000082;2142
209;0.7248165000000881;2152
210;0.7277150999998412;2161
211;0.7304573000001255;2171
212;0.7324428000010812;2179
213;0.7356438000006165;2187
214;0.7384741000005306;2197
215;0.740738100001181;2205
216;0.7435574999999517;2214
217;0.746981100000994;2224
218;0.749791300000652;2235
219;0.7537215000011201;2247
220;0.756533000001582;2257
221;0.7593801000002713;2266
222;0.7624370000012277;2276
223;0.76592890000029;2286
224;0.7686641000000236;2297
225;0.771610600000713;2306
226;0.7747475000014674;2316
227;0.7776677000001655;2327
228;0.7804671000012604;2337
229;0.782645200000843;2346
230;0.7855419000006805;2353
231;0.7885050000004412;2364
232;0.7914924000015162;2372
233;0.7945421000003989;2384
234;0.7975340000011784;2393
235;0.8006056000012904;2402
236;0.8036072000013519;2414
237;0.8067755000010948;2424
238;0.8097931000011158;2434
239;0.8128004000009241;2444
240;0.8157554000008531;2455
241;0.8187481000004482;2464
242;0.8216099000001122;2474
243;0.8247609999998531;2484
244;0.8278030000001309;2495
245;0.8305405000010069;2505
246;0.8337700000010955;2514
247;0.8367674000000989;2525
248;0.839767600000414;2535
249;0.842734300000302;2545
250;0.8457331000008708;2556
251;0.8487795000000915;2564
252;0.8517819000007876;2576
253;0.8547754000010173;2586
254;0.8577663000014581;2596
255;0.860773500000505;2606
256;0.8634814000015467;2616
257;0.8667535000004136;2625
258;0.8697793000010279;2637
259;0.8727727000004961;2646
260;0.8757660000010219;2656
261;0.8787712000012107;2666
262;0.881788200000301;2676
263;0.8847647000002326;2687
264;0.8877667000015208;2697
265;0.8907734000003984;2706
266;0.8935276000011072;2716
267;0.896584600001006;2725
268;0.8997792999998637;2735
269;0.9027756000014051;2746
270;0.9057711000004929;2756
271;0.9087013000007573;2766
272;0.9117732000013348;2775
273;0.914775200000804;2785
274;0.9177872000000207;2795
275;0.920651700000235;2804
276;0.9234927000015887;2813
277;0.9264651000012236;2824
278;0.9284541000015452;2831
279;0.9304989000011119;2837
280;0.9336124000001291;2845
281;0.9367725000010978;2854
282;0.939616700001352;2864
283;0.9426216000010754;2871
284;0.9457204999998794;2882
285;0.9487013000016304;2891
286;0.9518191000006482;2899
287;0.9547233000012056;2908
288;0.9575555999999779;2917
289;0.9606363000002602;2925
290;0.9635120000002644;2934
291;0.9665367000015976;2943
292;0.9696094000009907;2951
293;0.9724550000009913;2961
294;0.9744332999998733;2968
295;0.9775045000005775;2974
296;0.9804383000009693;2984
297;0.9825768000009703;2991
298;0.9856423000001087;2998
299;0.9885580000009213;3006
300;0.9914517000015621;3015
301;0.9935404000007111;3023
302;0.995490700001028;3028
303;0.997397600000113;3034
304;0.9993394000011904;3039
305;1.0013723000010941;3044
306;1.0034289000013814;3050
307;1.005430900000647;3056
308;1.0085834000001341;3062
309;1.011657800001558;3070
310;1.0145034000015585;3079
311;1.0164065000008122;3086
312;1.018409900001643;3091
313;1.0204671000010421;3096
314;1.0225869000005332;3102
315;1.0257601000012073;3108
316;1.0287446000002092;3117
317;1.031643600001189;3124
318;1.034509800001615;3132
319;1.0377536000014516;3140
320;1.040563900000052;3148
321;1.0425067000014678;3154
322;1.0455873000009888;3159
323;1.0473559000001842;3166
324;1.050398800000039;3172
325;1.0523874000009528;3178
326;1.0543630000011035;3182
327;1.0565882000009879;3187
328;1.0597391000010248;3193
329;1.06274459999986;3201
330;1.0654498000003514;3207
331;1.0673338000015065;3213
332;1.0694032999999763;3217
333;1.0724800000007235;3223
334;1.0744625000006636;3229
335;1.07684860000154;3234
336;1.0800573000014992;3240
337;1.082998800000496;3246
338;1.086007800000516;3253
339;1.0889741999999387;3260
340;1.0917851000012888;3266
341;1.0947879000013927;3272
342;1.0975278000005346;3278
343;1.1004852000005485;3283
344;1.1034812000016245;3289
345;1.1064812000004167;3295
346;1.1096826000011788;3301
347;1.1125716000005923;3308
348;1.1157730000013544;3313
349;1.1189748000015243;3320
350;1.1230559000014182;3326
351;1.1270487000001594;3333
352;1.1305484000004071;3340
353;1.1335416000001715;3346
354;1.136880400001246;3351
355;1.1398864000002504;3356
356;1.1427993000015704;3361
357;1.1457120000013674;3366
358;1.1486875999999029;3370
359;1.1517588000006072;3375
360;1.1546573000014178;3380
361;1.15778710000086;3384
362;1.160787300001175;3388
363;1.1634420999998838;3393
364;1.166791400000875;3397
365;1.1697939000005135;3401
366;1.172778300000573;3405
367;1.1757857000011427;3409
368;1.1786441000003833;3413
369;1.1817884000010963;3416
370;1.1847816000008606;3420
371;1.1877815000007104;3423
372;1.1907793000009406;3427
373;1.1934442000001582;3430
374;1.196507600001496;3433
375;1.1998074000002816;3436
376;1.2027922000015678;3439
377;1.205796400001418;3442
378;1.2087980000014795;3444
379;1.2118003000014141;3447
380;1.2147836000003736;3449
381;1.2177846000013233;3451
382;1.2208010000013019;3454
383;1.2237844999999652;3456
384;1.2559267000015097;3458
385;1.2728856000012456;3476
386;1.2894298999999592;3482
387;1.2914488000005804;3482
388;1.2935249000001932;3482
389;1.2965433000008488;3482
390;1.2995351000008668;3482
391;1.3023204000000987;3481
392;1.3042789000010089;3481
393;1.3062752000005275;3481
394;1.3082758000000467;3480
395;1.3102742999999464;3480
396;1.3122992000007798;3479
397;1.315279600001304;3478
398;1.3172768000003998;3477
399;1.3200556000010693;3477
400;1.3241125000004104;3476
401;1.328072100001009;3474
402;1.332084900001064;3472
403;1.3361038000002736;3470
404;1.3400927000002412;3468
405;1.3440784000013082;3465
406;1.3478751000002376;3463
407;1.3521450000007462;3460
408;1.3561235000015586;3457
409;1.3597409000012703;3454
410;1.3630809000005684;3450
411;1.3660313000000315;3448
412;1.3700988000000507;3445
413;1.3740871000009065;3441
414;1.3781094000005396;3437
415;1.3819488000008278;3433
416;1.3849733000006381;3429
417;1.3874650000016118;3427
418;1.3894792999999481;3424
419;1.3914574000009452;3422
420;1.3940246000001935;3420
421;1.3976042000012967;3416
422;1.4010218000003078;3412
423;1.4049905000010767;3407
424;1.4090808000000834;3402
425;1.4130777000009402;3398
426;1.4160490000012942;3393
427;1.420168000000558;3388
428;1.423592800001643;3383
429;1.42697600000065;3378
430;1.4299325000010867;3373
431;1.432919500000935;3369
432;1.4360651000006328;3365
433;1.4389136000008875;3359
434;1.4431080000013026;3354
435;1.4459187000011298;3348
436;1.4490639000014198;3344
437;1.45298990000083;3337
438;1.4570966999999655;3330
439;1.4606297999998787;3323
440;1.463517199999842;3316
441;1.4669368000013492;3311
442;1.4698072999999567;3306
443;1.4726278000016464;3300
444;1.4756703000002744;3295
445;1.4786634000010963;3288
446;1.4816598000015802;3283
447;1.4847008000015194;3277
448;1.4876877000006061;3271
449;1.4908085000006395;3265
450;1.4936860000016168;3258
451;1.4964672000005521;3252
452;1.4996788000007655;3246
453;1.5025667999998404;3240
454;1.5055797000004532;3234
455;1.5088677000003372;3226
456;1.5116453000009642;3220
457;1.5147780000006605;3213
458;1.5178005000016128;3207
459;1.5206285000003845;3200
460;1.5234689000008075;3193
461;1.5266645000010612;3187
462;1.5293936000016402;3180
463;1.531692500000645;3174
464;1.5345357000005606;3168
465;1.537501600001633;3161
466;1.5394437000013568;3154
467;1.5414392000002408;3149
468;1.544452400001319;3144
469;1.5464377000007516;3137
470;1.5495850000006612;3131
471;1.5515448000005563;3124
472;1.5547217000003002;3118
473;1.5576333000008162;3110
474;1.5606354999999894;3102
475;1.5634951000010915;3095
476;1.5654468000011548;3088
477;1.5675765000014508;3082
478;1.5703549999998359;3076
479;1.5735588000006828;3068
480;1.5766978000010567;3060
481;1.5798087000002852;3052
482;1.582723999999871;3042
483;1.5856199999998353;3035
484;1.588614600001165;3026
485;1.5916035999998712;3017
486;1.5946038000001863;3008
487;1.597484900001291;3000
488;1.6004722000016045;2993
489;1.6025620000000345;2985
490;1.6044557000004716;2979
491;1.6074453000001085;2973
492;1.6095953000003647;2964
493;1.6126070999998774;2958
494;1.6154672000011487;2949
495;1.6188431000009587;2940
496;1.6217271000004985;2930
497;1.624559700001555;2922
498;1.627739700001257;2912
499;1.6305535999999847;2903
500;1.6337121000015031;2894
501;1.6366835000007995;2885
502;1.6400449000011577;2874
503;1.6429134000009071;2865
504;1.6455276000015147;2856
505;1.648810800001229;2849
506;1.6518391000008705;2837
507;1.6546894000002794;2829
508;1.6578351000007387;2819
509;1.660523500000636;2810
510;1.6634769000011147;2800
511;1.6668494000005012;2791
512;1.6698329000009835;2779
513;1.6728419000010035;2770
514;1.675852100001066;2759
515;1.6788310000010824;2751
516;1.6818453000014415;2741
517;1.6848108000012871;2730
518;1.6877119000000675;2722
519;1.6908141000003525;2712
520;1.6934372000014264;2702
521;1.696464399999968;2694
522;1.6998134000004939;2684
523;1.7028127000012319;2672
524;1.705816000001505;2663
525;1.7087476000015158;2653
526;1.7118067000010342;2642
527;1.714805500001603;2634
528;1.7178105000002688;2624
529;1.720809400001599;2613
530;1.7236862000008841;2603
531;1.7267417000002752;2594
532;1.729415900001186;2583
533;1.7314378999999462;2575
534;1.7334750999998505;2568
535;1.7366613000012876;2560
536;1.739655400000629;2550
537;1.742827699999907;2541
538;1.7456846000004589;2529
539;1.7488171000004513;2521
540;1.751682800000708;2510
541;1.754686500000389;2499
542;1.7576744000016333;2489
543;1.7606730000006792;2480
544;1.763480100000379;2469
545;1.7666860000008455;2461
546;1.7698027000005823;2451
547;1.7726921000012226;2440
548;1.7758154000002833;2430
549;1.7786957000007533;2418
550;1.7815289000009216;2410
551;1.784682100000282;2399
552;1.7874252000001434;2388
553;1.7906801000008272;2377
554;1.7938881999998557;2367
555;1.7964498000001186;2358
556;1.798494100001335;2350
557;1.8004591000008077;2343
558;1.8023872000012489;2337
559;1.8046403000007558;2330
560;1.8077867000010883;2321
561;1.8107889000002615;2309
562;1.8133922000015446;2300
563;1.8166062000000238;2291
564;1.820028200001616;2280
565;1.8240824000004068;2268
566;1.8280845000008412;2254
567;1.831625000000713;2239
568;1.8350193000005675;2228
569;1.8379672999999457;2217
570;1.840995300000941;2207
571;1.8439682000007451;2198
572;1.8464744000011706;2187
573;1.8498827000003075;2179
574;1.852864899999986;2168
575;1.8558224000007613;2158
576;1.8588271000007808;2148
577;1.8617301000012958;2139
578;1.8645894000001135;2129
579;1.867479300000923;2121
580;1.869529200001125;2112
581;1.8730697999999393;2103
582;1.877076600001601;2091
583;1.88061160000143;2078
584;1.8837307000012515;2069
585;1.8866649000010511;2057
586;1.8896844000009878;2048
587;1.8926555000016378;2038
588;1.8956899000004341;2029
589;1.898657000001549;2021
590;1.90168580000136;2011
591;1.9046832000003633;2002
592;1.9077528000016173;1993
593;1.9107132000008278;1984
594;1.9135728000001109;1974
595;1.916817400000582;1965
596;1.9198116000006848;1956
597;1.922803000001295;1947
598;1.925794800001313;1938
599;1.9287984000002325;1929
600;1.931797799999913;1920
601;1.934773300001325;1910
602;1.9376604000008228;1902
603;1.9407877000012377;1893
604;1.9437938000010035;1885
605;1.9465037000009033;1876
606;1.9498214000013832;1868
607;1.952806799999962;1858
608;1.9558156000002782;1850
609;1.9588244000005943;1841
610;1.9618227999999363;1832
611;1.964798700000756;1825
612;1.9677992000015365;1817
613;1.9707828000009613;1808
614;1.97379920000094;1800
615;1.9764903000013874;1792
616;1.9796513000001141;1785
617;1.9828184000016336;1776
618;1.985801500000889;1767
619;1.9887832000003982;1760
620;1.991749400000117;1752
621;1.9948043000003963;1745
622;1.9978004000004148;1737
623;2.000798900000518;1729
624;2.003798800000368;1722
625;2.0067967000013596;1714
626;2.0094982999999047;1706
627;2.011822000000393;1701
628;2.014687500000946;1695
629;2.017795700001443;1688
630;2.020806700000321;1681
631;2.0233325000008335;1673
632;2.0268257000006997;1667
633;2.029665100000784;1659
634;2.0328243000003567;1653
635;2.0357969000015146;1645
636;2.038684600000124;1639
637;2.0418232000010903;1631
638;2.044793800001571;1624
639;2.047796400000152;1618
640;2.0508015000013984;1612
641;2.0538035000008676;1606
642;2.056834400000298;1600
643;2.0597900000011578;1593
644;2.062808300001052;1587
645;2.065810200001579;1581
646;2.0688244000011764;1575
647;2.071479400001408;1570
648;2.073538100001315;1565
649;2.076832700000523;1561
650;2.079632100001618;1554
651;2.0828255000014906;1550
652;2.0858197000015934;1544
653;2.0888012000013987;1538
654;2.091666800000894;1533
655;2.094914500001323;1528
656;2.097556500000792;1523
657;2.100564200000008;1519
658;2.1025636000013037;1514
659;2.106022200001462;1511
660;2.1091389000011986;1505
661;2.1130389000009018;1500
662;2.116228200000478;1494
663;2.11892650000118;1490
664;2.121986200001629;1485
665;2.124873700000535;1482
666;2.1276580000012473;1478
667;2.1306686000007176;1474
668;2.1336979000006977;1471
669;2.1368025000010675;1467
670;2.1396777000009024;1463
671;2.1429091000009066;1459
672;2.1457587000004423;1455
673;2.1483788000005006;1452
674;2.1518466000015906;1449
675;2.154721000000791;1446
676;2.157841500000359;1443
677;2.160706399999981;1440
678;2.1634948999999324;1438
679;2.165608000001157;1436
680;2.168712000000596;1434
681;2.171835600000122;1431
682;2.174713200000042;1428
683;2.1778376000002027;1426
684;2.1807924000004277;1424
685;2.183747900000526;1422
686;2.1867402000007132;1420
687;2.189711700000771;1418
688;2.1928422000000865;1416
689;2.1957214000012755;1414
690;2.19852930000161;1412
691;2.201603100000284;1411
692;2.2044687000015983;1409
693;2.2068166000008205;1408
694;2.2094697000011365;1407
695;2.2127705000002607;1406
696;2.215696900000694;1405
697;2.218395900001269;1404
698;2.2216249000011885;1403
699;2.2247425000005023;1403
700;2.227684000001318;1402
701;2.230552800001533;1402
702;2.2324762000007468;1401
703;2.2356529000007868;1401
704;2.238492000000406;1400
705;2.2414255000003322;1401
706;2.243534700000964;1400
707;2.2465356000011525;1400
708;2.2483898000009503;1400
709;2.250409700000091;1401
710;2.2524051000000327;1401
711;2.2545206000013422;1401
712;2.2565144000000146;1401
713;2.258604700000433;1402
714;2.2617188000003807;1402
715;2.2647734000001947;1403
716;2.267847300001449;1404
717;2.2706918000003498;1405
718;2.27377400000114;1406
719;2.276673700000174;1407
