;time;amplitude
0;0.004051300000355695;2454
1;0.007004000000961241;2451
2;0.009115599999859114;2449
3;0.012144000000262167;2448
4;0.015070400000695372;2446
5;0.018091699999786215;2444
6;0.021079800000734394;2441
7;0.02410280000003695;2439
8;0.027068100000178674;2438
9;0.030580500000723987;2435
10;0.033092600000600214;2433
11;0.03591640000013285;2431
12;0.03908700000101817;2429
13;0.04206780000095023;2427
14;0.04509479999978794;2425
15;0.04813840000133496;2423
16;0.05125960000077612;2421
17;0.05447730000014417;2419
18;0.05820480000147654;2416
19;0.061201700000310666;2414
20;0.06412880000061705;2412
21;0.06697210000129417;2410
22;0.0702820000005886;2408
23;0.07341770000130055;2405
24;0.07626420000087819;2403
25;0.07909180000024207;2401
26;0.08222790000036184;2399
27;0.08522760000050766;2397
28;0.08819110000149522;2396
29;0.0912136000006285;2394
30;0.09420959999988554;2392
31;0.09710570000061125;2390
32;0.100255900000775;2388
33;0.10324140000011539;2386
34;0.10599830000137445;2384
35;0.10904830000072252;2382
36;0.11114129999987199;2380
37;0.11404200000106357;2379
38;0.11698620000061055;2377
39;0.12032230000113486;2375
40;0.12326709999979357;2372
41;0.12626490000002377;2370
42;0.1289604000012332;2368
43;0.1320082000002003;2367
44;0.1352143000003707;2365
45;0.13822090000030585;2363
46;0.14121660000091651;2360
47;0.14433910000116157;2359
48;0.14738600000055158;2357
49;0.15019530000063241;2356
50;0.1533056000007491;2354
51;0.15627590000076452;2351
52;0.15935150000041176;2349
53;0.16204930000094464;2347
54;0.1653044000013324;2346
55;0.16821250000066357;2344
56;0.17118120000122872;2342
57;0.17414079999980459;2340
58;0.17699530000027153;2339
59;0.18003300000054878;2337
60;0.183512100000371;2335
61;0.18763690000014321;2333
62;0.19176840000000084;2330
63;0.19597980000071402;2328
64;0.20112719999997353;2326
65;0.20610750000014377;2322
66;0.21126970000113943;2319
67;0.21559510000042792;2317
68;0.21963140000116255;2315
69;0.22356150000086927;2312
70;0.22785830000066198;2310
71;0.2319509000008111;2308
72;0.235763800001223;2306
73;0.2397584000009374;2303
74;0.24340459999984887;2301
75;0.24616419999983918;2300
76;0.24953020000066317;2298
77;0.2525381000014022;2296
78;0.2555255000006582;2295
79;0.25854249999974854;2294
80;0.2620963000008487;2292
81;0.26507649999985006;2291
82;0.26809980000143696;2289
83;0.27106199999980163;2288
84;0.2729653000005783;2287
85;0.27498089999971853;2286
86;0.278057000001354;2285
87;0.28104549999989104;2284
88;0.2829693000003317;2282
89;0.2864404000010836;2281
90;0.28923110000141605;2279
91;0.2922033000013471;2278
92;0.2951197000002139;2277
93;0.29708060000120895;2276
94;0.30108300000028976;2275
95;0.30417430000125023;2273
96;0.30717010000080336;2272
97;0.3102202000009129;2271
98;0.31296930000098655;2270
99;0.31598699999995006;2269
100;0.3191110000007029;2268
101;0.3220331000011356;2267
102;0.3252096000014717;2266
103;0.3282206000003498;2265
104;0.33097360000101617;2264
105;0.333158800000092;2262
106;0.3362816000008024;2262
107;0.33926440000141156;2261
108;0.3422807000006287;2260
109;0.3451451000000816;2259
110;0.34825910000108706;2258
111;0.35126710000076855;2258
112;0.3542747999999847;2257
113;0.35706370000116294;2256
114;0.36007729999982985;2255
115;0.3632443000005878;2255
116;0.36622410000018135;2254
117;0.3691796000002796;2253
118;0.372178100000383;2253
119;0.3752343000014662;2251
120;0.3782619000012346;2251
121;0.38122130000010657;2250
122;0.3843596000006073;2250
123;0.38736400000016147;2249
124;0.39064409999991767;2248
125;0.3932423000005656;2248
126;0.39614240000082646;2248
127;0.3990267000008316;2247
128;0.40221390000078827;2247
129;0.4052155999997922;2246
130;0.40826470000138215;2246
131;0.41125819999979285;2246
132;0.41399190000083763;2245
133;0.4173281000003044;2245
134;0.4203291000012541;2245
135;0.42332750000059605;2244
136;0.42618060000131663;2244
137;0.4291140000004816;2243
138;0.4319752999999764;2243
139;0.43400190000102157;2244
140;0.4359861000011733;2243
141;0.43799220000073547;2243
142;0.4399879000011424;2243
143;0.44329950000064855;2243
144;0.44611540000005334;2243
145;0.44938010000078066;2243
146;0.4523779999999533;2243
147;0.45540770000116026;2243
148;0.45825719999993453;2243
149;0.4610400000001391;2243
150;0.4640354000002844;2243
151;0.46641190000082133;2243
152;0.469245400001455;2243
153;0.47225150000122085;2243
154;0.4752098000008118;2243
155;0.47832820000076026;2244
156;0.48126910000064527;2244
157;0.48422709999977087;2245
158;0.4872346000011021;2245
159;0.49022839999997814;2246
160;0.4930385000006936;2246
161;0.49600330000066606;2246
162;0.49923110000054294;2246
163;0.5022439000003942;2247
164;0.5052321000002848;2247
165;0.5082189000004291;2247
166;0.5112355000001116;2248
167;0.5142347000000882;2248
168;0.5172316000007413;2249
169;0.5202495000012277;2249
170;0.5232279000010749;2249
171;0.5261862000006658;2250
172;0.5289805000011256;2251
173;0.5322324999997363;2251
174;0.5352348000014899;2251
175;0.5382311000012123;2252
176;0.5410069999998086;2253
177;0.5440336000010575;2253
178;0.5471293999999034;2254
179;0.5504454000001715;2255
180;0.5534016000001429;2256
181;0.5562036000010266;2256
182;0.5595069999999396;2257
183;0.5620644999999058;2258
184;0.5639725000000908;2258
185;0.565946000000622;2258
186;0.5679596000009042;2259
187;0.5702825000007579;2260
188;0.5731405000005907;2261
189;0.5761383000008209;2262
190;0.5788803000014013;2263
191;0.5812027000010858;2263
192;0.584294400001454;2264
193;0.5872870000002877;2265
194;0.5902874000003067;2266
195;0.5935257000001002;2267
196;0.5976436000000831;2268
197;0.6016259000007267;2269
198;0.6060686000000715;2271
199;0.6111244000003353;2273
200;0.6156033000006573;2274
201;0.6197064000007231;2276
202;0.6235250000008818;2278
203;0.6275932999997167;2279
204;0.6313387999998668;2280
205;0.6343938000009075;2282
206;0.6387503000005381;2283
207;0.6426936000007117;2285
208;0.6462200000005396;2286
209;0.6507584999999381;2288
210;0.6546952999997302;2290
211;0.6587183000010555;2292
212;0.6622105000005831;2294
213;0.6667787000005774;2295
214;0.670768500000122;2298
215;0.6747388000003411;2300
216;0.6782066000014311;2302
217;0.68166360000032;2304
218;0.6856602000007115;2306
219;0.6896823000006407;2309
220;0.6932457000002614;2310
221;0.6976539000006596;2312
222;0.7002290000000357;2314
223;0.7030548000002455;2316
224;0.7060649000013655;2317
225;0.7080282000006264;2319
226;0.71128680000038;2320
227;0.71407630000067;2322
228;0.7170510000014474;2324
229;0.720077100000708;2326
230;0.7235686000003625;2327
231;0.7271365000015066;2330
232;0.7302110000000539;2332
233;0.733339899999919;2334
234;0.7363311000008252;2335
235;0.7402044999998907;2336
236;0.743488600001001;2338
237;0.7469799999998941;2341
238;0.7503453000008449;2343
239;0.7533218000007764;2344
240;0.7563179999997374;2346
241;0.7593450000003941;2348
242;0.7631161999997857;2350
243;0.7665544999999838;2352
244;0.7706076000013127;2354
245;0.7746041000009427;2356
246;0.7786570999996911;2359
247;0.781536700000288;2362
248;0.785615400000097;2365
249;0.7896172000000661;2367
250;0.7936081000007107;2369
251;0.7961547000013525;2372
252;0.7995583000010811;2373
253;0.8033602000014071;2375
254;0.8063682000010886;2378
255;0.809336300000723;2380
256;0.812070699999822;2382
257;0.8152132000013808;2384
258;0.8181730000014795;2386
259;0.8212014000000636;2388
260;0.8242253000007622;2390
261;0.8269414000005781;2392
262;0.8300481000005675;2394
263;0.8319240000000718;2396
264;0.8341761000010592;2398
265;0.8372017000001506;2399
266;0.8402107000001706;2401
267;0.8432526000015059;2403
268;0.845931500000006;2405
269;0.8482161000010819;2407
270;0.8511877000000823;2409
271;0.8541720000011992;2410
272;0.8571910999999091;2412
273;0.8602128000002267;2414
274;0.8632143000013457;2416
275;0.8661195000004227;2418
276;0.8680382000002282;2420
277;0.8700342000011005;2421
278;0.8720192000000679;2423
279;0.8740071000011085;2424
280;0.8760158000004594;2426
281;0.8780664000005345;2427
282;0.8799990000006801;2429
283;0.881994900000791;2430
284;0.8852451000002475;2432
285;0.888274700000693;2434
286;0.8912571000000753;2435
287;0.8942698000009841;2437
288;0.8972824000011315;2439
289;0.9002645000000484;2441
290;0.903258199999982;2443
291;0.9062599000008049;2445
292;0.9091375000007247;2447
293;0.9119860999999219;2449
294;0.9139313000014226;2451
295;0.9161538999996992;2453
296;0.9191604000006919;2454
297;0.9221663000007538;2456
298;0.9251432000000932;2458
299;0.9283476000000519;2460
300;0.9312201000011555;2462
301;0.9343212000003405;2464
302;0.9373235000002751;2466
303;0.9403191000001243;2468
304;0.943353800001205;2470
305;0.9459536000013031;2472
306;0.949330600000394;2474
307;0.9522839000001113;2476
308;0.9552868000009767;2478
309;0.9583414999997331;2480
310;0.961920600000667;2483
311;0.9641370999997889;2484
312;0.9671330000001035;2486
313;0.970132399999784;2488
314;0.9731761000002734;2490
315;0.9761951000000408;2493
316;0.9789834000002884;2495
317;0.9822884000004706;2497
318;0.9852819000007003;2499
319;0.9882923000004666;2500
320;0.9913071999999374;2502
321;0.9943025000011403;2504
322;0.997300200000609;2506
323;1.0003117000014754;2508
324;1.0033249000007345;2510
325;1.0063195000002452;2512
326;1.009346100001494;2514
327;1.0120873000014399;2515
328;1.0150946000012482;2517
329;1.0180670999998256;2519
330;1.021105700001499;2521
331;1.0241029999997409;2522
332;1.0270084000003408;2524
333;1.029095200001393;2526
334;1.0320704000005207;2527
335;1.034071900001436;2529
336;1.0370515000013256;2530
337;1.0390329000001657;2532
338;1.0410799000001134;2533
339;1.0440647000013996;2534
340;1.0461129000013898;2535
341;1.0490538000012748;2536
342;1.051029700000072;2538
343;1.0530300999998872;2539
344;1.055040299999746;2540
345;1.0570414000012534;2541
346;1.0590671000009024;2542
347;1.0610274000009667;2543
348;1.0629884000009042;2544
349;1.0650014000002557;2546
350;1.067011500001172;2546
351;1.069050199999765;2547
352;1.071916400000191;2548
353;1.0739180000000488;2549
354;1.0759245999997802;2550
355;1.0780308000012155;2551
356;1.0801172999999835;2552
357;1.0820917000000918;2553
358;1.0849942000004376;2554
359;1.0870219999997062;2556
360;1.0890626000000339;2557
361;1.0922870000013063;2558
362;1.0948839000011503;2559
363;1.097137400000065;2560
364;1.0999091000012413;2561
365;1.101992900001278;2562
366;1.1039975000003324;2564
367;1.1060244000000239;2564
368;1.108030500001405;2565
369;1.1100402000010945;2566
370;1.1130616999998892;2567
371;1.1160424999998213;2568
372;1.1180292000008194;2569
373;1.121326600001339;2570
374;1.1242803000004642;2571
375;1.127282400000695;2573
376;1.1304672000005667;2574
377;1.13337490000049;2575
378;1.1363166000010096;2576
379;1.1394043000000238;2577
380;1.1424406000005547;2579
381;1.1450796999997692;2580
382;1.1481645000003482;2581
383;1.1516131999997015;2583
384;1.1556330000003072;2584
385;1.1596738000007463;2586
386;1.1633990999998787;2587
387;1.1664558000011311;2587
388;1.1709735000004002;2588
389;1.1749434000012116;2590
390;1.1789518000005046;2591
391;1.1824417000007088;2592
392;1.1854163000007247;2593
393;1.1887206000010337;2593
394;1.1923093000004883;2594
395;1.1952268000004551;2596
396;1.1984670000001643;2597
397;1.2014579000006052;2597
398;1.2044458000000304;2598
399;1.2074299000014435;2599
400;1.2101149999998597;2599
401;1.213201399999889;2600
402;1.2163697000014508;2601
403;1.2193154000015056;2602
404;1.2223774000012781;2602
405;1.2253811999999016;2602
406;1.2283805000006396;2602
407;1.2313890000004903;2603
408;1.2343786000001273;2603
409;1.237356900001032;2604
410;1.240142399999968;2605
411;1.2433520000013232;2605
412;1.246209800001452;2605
413;1.2493845999997575;2605
414;1.252376300000833;2606
415;1.2552045000011276;2607
416;1.2583561999999802;2607
417;1.2613519000005908;2607
418;1.264351900001202;2607
419;1.2673812000011822;2608
420;1.2701801000002888;2608
421;1.2733853000008821;2607
422;1.2763790000008157;2607
423;1.2791574000002583;2607
424;1.2823634000014863;2607
425;1.2853854000004503;2606
426;1.288352000001396;2606
427;1.2923833000004379;2605
428;1.2951630000006844;2605
429;1.2983770000009827;2606
430;1.301380099999733;2606
431;1.3043839000001753;2605
432;1.3073808000008285;2605
433;1.3103857000005519;2605
434;1.313361000000441;2605
435;1.3163748000006308;2604
436;1.3192917000014859;2604
437;1.322378500000923;2604
438;1.3253793000003498;2604
439;1.3284184000003734;2603
440;1.331374400000641;2602
441;1.3339758000001893;2602
442;1.3371497000007366;2602
443;1.340046600000278;2602
444;1.343200400000569;2601
445;1.346144600000116;2601
446;1.3492060999997193;2601
447;1.3521962000013446;2601
448;1.3554509000005055;2600
449;1.3592987000010908;2599
450;1.3621349000004557;2599
451;1.3653263000014704;2598
452;1.3683780000010302;2597
453;1.3713927999997395;2596
454;1.374388000000181;2596
455;1.3773748000003252;2595
456;1.38047060000099;2594
457;1.383400900000197;2593
458;1.3864159000004292;2592
459;1.3893794000014168;2592
460;1.3923473000013473;2591
461;1.39522290000059;2590
462;1.3981304000008095;2589
463;1.40154480000092;2589
464;1.4055672000013146;2588
465;1.4096023000001878;2587
466;1.4121516000013798;2585
467;1.4155391000003874;2584
468;1.4196150000007037;2583
469;1.42361400000118;2582
470;1.4272328000006382;2580
471;1.430199000000357;2580
472;1.4335396000005858;2579
473;1.4376434000005247;2577
474;1.4416300000011688;2576
475;1.444337099999757;2575
476;1.44753430000128;2574
477;1.4515731999999844;2572
478;1.4555439000014303;2570
479;1.4596357000009448;2569
480;1.46333980000054;2567
481;1.4664979000008316;2566
482;1.4705718000004708;2564
483;1.4742774000005738;2562
484;1.4775944000011805;2560
485;1.480348099999901;2559
486;1.4845753999998124;2557
487;1.4885651000004145;2556
488;1.4913401000012527;2554
489;1.494509600001038;2552
490;1.4974770999997418;2551
491;1.5004955000003974;2549
492;1.5035871000000043;2548
493;1.5072755000001052;2546
494;1.5104972000008274;2544
495;1.5141533000005438;2543
496;1.517116500001066;2541
497;1.518979100001161;2540
498;1.5210760999998456;2539
499;1.523047000000588;2538
500;1.5251145000001998;2538
501;1.5270438000006834;2536
502;1.5301515999999538;2536
503;1.5329271999999037;2534
504;1.5361697999996977;2532
505;1.5393108000007487;2531
506;1.5422144000003755;2529
507;1.5449687000000267;2528
508;1.547038300001077;2527
509;1.5501303000000917;2526
510;1.5521569000011368;2524
511;1.5553168000005826;2523
512;1.5582982000014454;2521
513;1.5613178000003245;2519
514;1.5641305999997712;2518
515;1.5670437999997375;2516
516;1.5690248000009888;2514
517;1.5708915000013803;2513
518;1.573105299999952;2512
519;1.5761644000012893;2511
520;1.5790083000010782;2509
521;1.5812117000004946;2507
522;1.5838816000014049;2506
523;1.5860612000014953;2504
524;1.5879175000009127;2503
525;1.5901424000003317;2502
526;1.5931099999997969;2500
527;1.5949596000009478;2498
528;1.597123700001248;2497
529;1.6001016999998683;2496
530;1.6031072000005224;2494
531;1.6061096000012185;2492
532;1.6080235000008543;2490
533;1.6111042000011366;2489
534;1.6141359000012017;2487
535;1.6160316000004968;2485
536;1.6191666000013356;2484
537;1.622705900001165;2481
538;1.626760799999829;2479
539;1.6312116000008245;2475
540;1.6345340000007127;2473
541;1.6375425000005635;2471
542;1.6405493000002025;2469
543;1.6446525000010297;2467
544;1.6485784000014974;2463
545;1.6526259000002028;2461
546;1.6566301000002568;2458
547;1.6605885999997554;2456
548;1.66355939999994;2453
549;1.6665419000000838;2450
550;1.6695424999998068;2448
551;1.6725501000000804;2446
552;1.6753837000014755;2444
553;1.6783682000004774;2442
554;1.6813805000001594;2440
555;1.684371100000135;2438
556;1.6873716999998578;2436
557;1.690265700000964;2433
558;1.6932042999997066;2431
559;1.696368300001268;2430
560;1.6993548999998893;2428
561;1.7023743000008835;2426
562;1.7053653000002669;2424
563;1.708365500000582;2421
564;1.7113705000010668;2419
565;1.7143627000004926;2417
566;1.7173607000004267;2415
567;1.7203554000006989;2413
568;1.7229579000013473;2411
569;1.7263682000011613;2409
570;1.7292420000012498;2408
571;1.7323722000000998;2406
572;1.7353553000011743;2404
573;1.7383606000003056;2402
574;1.7413625000008324;2400
575;1.744089100000565;2398
576;1.7460193000006257;2396
577;1.7490391999999702;2395
578;1.7510516000002099;2393
579;1.7530150000002322;2391
580;1.754988200000298;2390
581;1.7580942000004143;2388
582;1.760035200000857;2387
583;1.7620160000005853;2385
584;1.765107100000023;2384
585;1.7680443000008381;2382
586;1.7700392000006104;2380
587;1.7720389000005525;2379
588;1.7740430000012566;2377
589;1.7760245999998006;2376
590;1.7780024000003323;2375
591;1.7801416000002064;2374
592;1.7820298000006005;2372
593;1.7840145000009215;2371
594;1.7860228999998071;2370
595;1.7891017000001739;2368
596;1.79202720000103;2367
597;1.7940417999998317;2365
598;1.7970384000000195;2363
599;1.8001990000011574;2360
600;1.8031786999999895;2358
601;1.8061761999997543;2356
602;1.8091894999997749;2355
603;1.811887800000477;2353
604;1.8143362000009802;2351
605;1.8170570000002044;2349
606;1.8202809000013076;2348
607;1.8232910000006086;2346
608;1.8261075000009441;2344
609;1.8290728000010859;2342
610;1.8320691000008082;2340
611;1.8352358000011009;2339
612;1.8381996000007348;2336
613;1.8412377000004199;2335
614;1.8450010000015027;2332
615;1.8483246000014333;2330
616;1.8513321000009455;2329
617;1.85422330000074;2327
618;1.8572452000007615;2325
619;1.8603376999999455;2323
620;1.863051300000734;2321
621;1.866317699999854;2320
622;1.8693082999998296;2318
623;1.8723366000012902;2317
624;1.8753194000000803;2315
625;1.878009900001416;2314
626;1.8799458000012237;2312
627;1.8820966000002954;2311
628;1.88401309999972;2310
629;1.8859798000012233;2309
630;1.8878947000011976;2308
631;1.8901086000005307;2306
632;1.8931382999999187;2305
633;1.894976499999757;2303
634;1.8980134000012185;2302
635;1.9015715000005002;2301
636;1.9043944000004558;2299
637;1.907247000001007;2298
638;1.9102801000008185;2296
639;1.9130819000001793;2294
640;1.914921499999764;2293
641;1.9169010000005073;2292
642;1.9190045000013924;2291
643;1.921129700000165;2290
644;1.9243058000010933;2289
645;1.9273377999998047;2288
646;1.930073600000469;2287
647;1.933332300000984;2285
648;1.9363298999996914;2284
649;1.9393231000012747;2282
650;1.9423222000004898;2281
651;1.9448575000005803;2280
652;1.9482026000005135;2279
653;1.9510910000008153;2277
654;1.9541031000007933;2276
655;1.9570932000005996;2275
656;1.9600618000004033;2274
657;1.9630673000010574;2273
658;1.9650427000015043;2272
659;1.968158499999845;2271
660;1.9711831000004167;2270
661;1.9741997000000993;2269
662;1.9771966000007524;2267
663;1.9801813000012771;2266
664;1.9830718000011984;2265
665;1.9860571999997774;2264
666;1.9890766000007716;2263
667;1.9920662000004086;2263
668;1.9948402000009082;2261
669;1.9973554000007425;2260
670;2.000354600000719;2259
671;2.0033602000003157;2258
672;2.0063537000005454;2258
673;2.009352500001114;2257
674;2.0121326000007684;2256
675;2.0149195000012696;2255
676;2.0170291000013094;2254
677;2.0189138000005187;2254
678;2.0210474000014074;2253
679;2.023030899999867;2252
680;2.0252552000001742;2252
681;2.027953599999819;2251
682;2.0303519000008237;2251
683;2.0333036000010907;2250
684;2.036275000000387;2250
685;2.0393172000003688;2249
686;2.0423034000014013;2249
687;2.0450068000009196;2248
688;2.0480894000011176;2248
689;2.0510718000005;2248
690;2.054073100000096;2247
691;2.0570716000001994;2247
692;2.059975800000757;2246
693;2.0633572000006097;2245
694;2.0663540000005014;2245
695;2.069233500000337;2244
696;2.072349600000962;2244
697;2.0753519000008964;2243
698;2.0783045000007405;2243
699;2.081350200000088;2243
700;2.0843516000004456;2243
701;2.0873499999997875;2242
702;2.0903513000012026;2242
703;2.0932190000003175;2242
704;2.0963616000008187;2242
705;2.0990197000010085;2241
706;2.100983100001031;2241
707;2.1028117000005295;2241
708;2.1049542000000656;2241
709;2.1069867000005615;2241
710;2.109085900001446;2241
711;2.111003600000913;2241
712;2.113088100000823;2240
713;2.114897800000108;2240
714;2.1170027000007394;2240
715;2.1200653000014427;2240
716;2.1232245999999577;2240
717;2.1262692000000243;2240
