;time;amplitude
0;0.004584099999192404;2272
1;0.009169099999780883;2267
2;0.01268759999948088;2262
3;0.01626849999956903;2259
4;0.020276799999919604;2255
5;0.024038999999902444;2251
6;0.0266116000002512;2247
7;0.029922699999588076;2244
8;0.032918400000198744;2241
9;0.035896800000045914;2238
10;0.039931900000738096;2234
11;0.043912099999943166;2230
12;0.04672019999998156;2226
13;0.049733800000467454;2222
14;0.052738399999725516;2219
15;0.05572749999919324;2217
16;0.05860410000059346;2214
17;0.061692799999946146;2211
18;0.06471570000030624;2208
19;0.06766720000086934;2205
20;0.07059819999994943;2202
21;0.07369079999989481;2199
22;0.07670080000025337;2195
23;0.07995630000004894;2192
24;0.08295680000082939;2190
25;0.08569189999980154;2187
26;0.08899080000082904;2184
27;0.09148070000082953;2180
28;0.09451219999937166;2178
29;0.0978147000005265;2175
30;0.10084420000021055;2172
31;0.10380670000085956;2169
32;0.10679739999977755;2166
33;0.10977920000004815;2164
34;0.11280339999939315;2161
35;0.11577220000071975;2159
36;0.11879039999985253;2157
37;0.12180049999915354;2155
38;0.1246169000005466;2152
39;0.1278000999991491;2150
40;0.13077569999950356;2147
41;0.1337822999994387;2145
42;0.136776600000303;2143
43;0.13946600000053877;2141
44;0.14265990000058082;2138
45;0.14566550000017742;2136
46;0.1486081999992166;2134
47;0.15162550000059127;2132
48;0.15461230000073556;2130
49;0.15756519999922602;2128
50;0.16052660000059404;2126
51;0.16355690000091272;2124
52;0.16698250000081316;2122
53;0.17100980000031996;2120
54;0.17497299999922689;2118
55;0.17905070000051637;2115
56;0.18302609999955166;2113
57;0.18691489999946498;2111
58;0.18993810000029043;2108
59;0.192935099999886;2106
60;0.19702219999999215;2104
61;0.1999574000001303;2103
62;0.20362790000035602;2101
63;0.2066192999991472;2099
64;0.20960050000030606;2098
65;0.21285589999934018;2096
66;0.21564890000081505;2095
67;0.21866480000062438;2094
68;0.22165420000055747;2093
69;0.2246476000000257;2092
70;0.22767620000013267;2091
71;0.23065090000091004;2089
72;0.23364629999923636;2088
73;0.2366519999995944;2087
74;0.2396539000001212;2087
75;0.24256079999940994;2085
76;0.24543919999996433;2085
77;0.2485477999998693;2084
78;0.2515321999999287;2083
79;0.25350950000029115;2082
80;0.2564557000005152;2081
81;0.2595959000009316;2081
82;0.26248520000081044;2080
83;0.265439000000697;2080
84;0.26862050000090676;2079
85;0.27166609999949287;2078
86;0.27458450000085577;2077
87;0.2765968999992765;2077
88;0.2795564000007289;2076
89;0.2826000999993994;2076
90;0.2854275999998208;2076
91;0.2874972000008711;2076
92;0.2904658000006748;2075
93;0.2924488000007841;2075
94;0.2944865999998001;2074
95;0.29630100000031234;2074
96;0.2984139000000141;2074
97;0.3003186000005371;2073
98;0.3023401999998896;2073
99;0.3044337999999698;2073
100;0.3064228999992338;2073
101;0.3083803000008629;2073
102;0.31146780000017316;2073
103;0.31346990000020014;2073
104;0.31680469999992056;2072
105;0.31998290000046836;2072
106;0.32288900000094145;2072
107;0.32549459999972896;2072
108;0.32848870000088937;2072
109;0.3304145999991306;2072
110;0.33363640000061423;2072
111;0.33686370000032184;2073
112;0.3395130999997491;2074
113;0.34264079999957175;2074
114;0.34545950000028824;2074
115;0.3476368999999977;2074
116;0.35078149999935704;2075
117;0.35481520000030287;2076
118;0.3585349999993923;2076
119;0.3614871999998286;2077
120;0.36481260000073235;2077
121;0.36768929999925604;2078
122;0.37067039999965345;2079
123;0.3736081999995804;2080
124;0.3765378000007331;2081
125;0.3784544000009191;2082
126;0.3804536999996344;2083
127;0.38373929999943357;2083
128;0.3865588000007847;2084
129;0.38958570000067994;2085
130;0.3925596000008227;2087
131;0.39550120000058087;2087
132;0.39742819999992207;2088
133;0.4004155000002356;2089
134;0.40232300000025134;2090
135;0.4043584999999439;2091
136;0.406365700000606;2092
137;0.4083047999993141;2092
138;0.4113710000001447;2093
139;0.41346510000039416;2094
140;0.41654170000037993;2095
141;0.41945289999966917;2097
142;0.4214188000005379;2098
143;0.4234699999997247;2098
144;0.42537559999982477;2099
145;0.427475599999525;2100
146;0.4295163999995566;2101
147;0.43247429999973974;2102
148;0.4359502999996039;2103
149;0.4399367000005441;2106
150;0.4441399999996065;2108
151;0.4476192000001902;2109
152;0.45071029999962775;2111
153;0.45372370000040974;2112
154;0.4567745999993349;2114
155;0.4594699999997829;2116
156;0.46249510000052396;2117
157;0.46438490000036836;2119
158;0.46656719999919005;2120
159;0.4696131000000605;2122
160;0.4724943000001076;2123
161;0.4743818000006286;2125
162;0.4765191999995295;2126
163;0.47842950000085693;2127
164;0.48054489999958605;2128
165;0.48354250000011234;2130
166;0.48552010000094015;2132
167;0.48836669999946025;2134
168;0.4903907000007166;2136
169;0.49264279999988503;2137
170;0.49557909999930416;2139
171;0.49849969999922905;2141
172;0.5015980999996827;2144
173;0.5046913999995013;2146
174;0.5080080999996426;2148
175;0.5105703000008361;2151
176;0.5134452999991481;2153
177;0.5154383999997663;2155
178;0.5184530000005907;2157
179;0.521492699999726;2159
180;0.5245121000007202;2162
181;0.5267149999999674;2164
182;0.5294386000005034;2167
183;0.5328047000002698;2169
184;0.5360258000000613;2172
185;0.5389183000006597;2175
186;0.5414129000000685;2178
187;0.544833899999503;2180
188;0.5478571000003285;2183
189;0.5508420999994996;2186
190;0.5548546999998507;2189
191;0.5577613000004931;2193
192;0.5605049999994662;2195
193;0.5623025000004418;2198
194;0.5654878000004828;2200
195;0.5685255000007601;2203
196;0.571462199999587;2206
197;0.5745621000005485;2209
198;0.5768131999993784;2212
199;0.5794788999992306;2215
200;0.5816107999999076;2217
201;0.5846050000000105;2220
202;0.587633499999356;2224
203;0.5906152999996266;2227
204;0.5934601000008115;2229
205;0.5954354999994393;2232
206;0.5974339000003965;2234
207;0.599652299999434;2236
208;0.6027453999995487;2239
209;0.6055625000008149;2242
210;0.6083804999998392;2245
211;0.6114539000009245;2249
212;0.6133860999998433;2252
213;0.6154800999993313;2254
214;0.6176016000008531;2256
215;0.6205712999999378;2258
216;0.6236745000005612;2262
217;0.6266544999998587;2265
218;0.6293215999994572;2269
219;0.631578399999853;2272
220;0.6334759000001213;2274
221;0.6355351000001974;2276
222;0.637507800000094;2278
223;0.639441600000282;2280
224;0.6412509000001592;2283
225;0.6443665999995574;2285
226;0.6477797999996255;2289
227;0.6504344000004494;2293
228;0.653597799999261;2296
229;0.656663199999457;2300
230;0.6595830999995087;2303
231;0.6624479000001884;2307
232;0.6655420000006416;2310
233;0.6689280999999028;2315
234;0.6720194000008632;2318
235;0.6746139999995648;2322
236;0.6774482000000717;2325
237;0.6793942000003881;2328
238;0.6829361000000063;2331
239;0.686594700000569;2336
240;0.6896187000002101;2340
241;0.6924502000001667;2343
242;0.695526699999391;2346
243;0.6986398999997618;2349
244;0.7015893999996479;2353
245;0.7046248000006017;2357
246;0.7074307999992016;2360
247;0.7096409000005224;2364
248;0.7124184000003879;2366
249;0.7154719000009209;2370
250;0.7186609000000317;2374
251;0.7215782000002946;2377
252;0.7244642000005115;2381
253;0.7264599000009184;2384
254;0.7293480000007548;2387
255;0.7323928999994678;2391
256;0.7356216000007407;2394
257;0.7384576000004017;2398
258;0.7413011000007828;2401
259;0.7435034000009182;2405
260;0.7463979000003746;2407
261;0.7497445000008156;2411
262;0.7528724999992846;2415
263;0.7559689999998227;2418
264;0.7584630000001198;2423
265;0.7615917999992234;2426
266;0.7655759000008402;2431
267;0.7687186000002839;2435
268;0.7717625000004773;2439
269;0.7747440000002825;2443
270;0.7778123999996751;2446
271;0.7808399999994435;2451
272;0.7840479000005871;2455
273;0.7866876000007323;2459
274;0.7898299000007682;2462
275;0.792517100000623;2466
276;0.7959680999992997;2470
277;0.7988886999992246;2474
278;0.8017696999995678;2477
279;0.8045829999991838;2480
280;0.807366600000023;2484
281;0.8094560999998066;2487
282;0.8126147999992099;2490
283;0.815580399999817;2494
284;0.8186172000005172;2498
285;0.8216310999996495;2502
286;0.8244348000007449;2505
287;0.826466900000014;2509
288;0.8296965999998065;2512
289;0.8326539999998204;2516
290;0.8356414000008954;2520
291;0.8386640000007901;2523
292;0.8414897999991808;2527
293;0.844697599999563;2530
294;0.8476470000005065;2534
295;0.850637600000482;2537
296;0.8534870000003139;2541
297;0.8554521000005479;2544
298;0.8583870000002207;2546
299;0.86164749999989;2550
300;0.8645455999994738;2554
301;0.8676419000003079;2557
302;0.8704312999998365;2561
303;0.8736747000002651;2565
304;0.876630999999179;2568
305;0.8796918000007281;2571
306;0.8826489999992191;2575
307;0.8856969999997091;2578
308;0.888668300000063;2582
309;0.8915567999993073;2585
310;0.8946515999996336;2588
311;0.8976421999996091;2592
312;0.9006649000002653;2595
313;0.9036464000000706;2598
314;0.9064321999994718;2601
315;0.9096508999991784;2605
316;0.9131369999995513;2608
317;0.9160480999998981;2612
318;0.9189819999992324;2615
319;0.921720300000743;2618
320;0.9244947000006505;2621
321;0.9275336999999126;2624
322;0.9303997999995772;2628
323;0.9327143999998952;2631
324;0.9356334999993123;2633
325;0.9387337000007392;2636
326;0.9414708000003884;2640
327;0.9445821000008436;2642
328;0.9474919000003865;2646
329;0.9496397999992041;2648
330;0.9525040000007721;2651
331;0.9547314999999799;2653
332;0.9575499999991735;2656
333;0.9594992000002094;2658
334;0.9624153000004299;2660
335;0.9654150999995181;2664
336;0.9685893000005308;2666
337;0.9716367000000901;2669
338;0.9743772000001627;2672
339;0.9764828999996098;2675
340;0.9787254999992001;2677
341;0.9816730999991705;2679
342;0.9844814999996743;2681
343;0.9864354000001185;2683
344;0.9884204000009049;2685
345;0.9904306999997061;2687
346;0.9927394000005734;2689
347;0.9954534000007698;2691
348;0.9974344999991445;2693
349;1.0006429999993998;2694
350;1.0035537999992812;2697
351;1.0065733999999793;2700
352;1.0097507999998925;2703
353;1.012528499999462;2705
354;1.014639499999248;2707
355;1.0176515000002837;2709
356;1.0203953000000183;2712
357;1.0236540000005334;2713
358;1.0264685000001919;2716
359;1.0284083000005921;2718
360;1.030516599999828;2719
361;1.0336626999996952;2721
362;1.036632200000895;2724
363;1.0396223000007012;2726
364;1.0430403000009392;2728
365;1.0454628000006778;2731
366;1.0474422999996023;2732
367;1.0505023000005167;2734
368;1.0538629000002402;2736
369;1.0568605000007665;2739
370;1.0596158999996987;2740
371;1.0624697000002925;2742
372;1.0645103000006202;2743
373;1.0674801999994088;2745
374;1.0696590000006836;2746
375;1.0726259000002756;2748
376;1.0754839000001084;2749
377;1.078450700000758;2750
378;1.0816677999991953;2752
379;1.084533699999156;2754
380;1.0876528000007966;2755
381;1.0896448999992572;2756
382;1.0928318000005675;2757
383;1.0954079999992246;2759
384;1.0984977999996772;2760
385;1.100617300000522;2761
386;1.1035625000004075;2763
387;1.1066150999995443;2764
388;1.109590100000787;2765
389;1.1124297999995179;2766
390;1.1157160999991902;2767
391;1.1186753000001772;2769
392;1.1220174000009138;2770
393;1.1243754999995872;2771
394;1.1264774999999645;2771
395;1.1284379000007903;2772
396;1.1304560000007768;2773
397;1.1323938999994425;2773
398;1.1356109000007564;2774
399;1.1386751999998523;2774
400;1.1414021000000503;2776
401;1.144541699999536;2776
402;1.1473150000001624;2777
403;1.1499514999995881;2778
404;1.1526049000003695;2778
405;1.1554555000002438;2778
406;1.1584461000002193;2779
407;1.1614950000002864;2779
408;1.163426499999332;2780
409;1.1653872000006231;2780
410;1.1689879000005021;2780
411;1.171661700000186;2781
412;1.1746643999995285;2781
413;1.1775032999994437;2781
414;1.179466699999466;2782
415;1.1814388999991934;2782
416;1.1845388000001549;2782
417;1.1875555999995413;2782
418;1.1906481000005442;2782
419;1.1934017999992648;2781
420;1.1954521000006935;2781
421;1.1984907000005478;2782
422;1.201477500000692;2782
423;1.2043929999999818;2782
424;1.2075760999996419;2782
425;1.2094694000006712;2782
426;1.2114782000007835;2782
427;1.213399300000674;2782
428;1.2168493000008311;2782
429;1.219484499999453;2782
430;1.2215534999995725;2782
431;1.224346400000286;2782
432;1.2264881999999488;2781
433;1.2296564999996917;2781
434;1.2315092999997432;2781
435;1.2343904000008479;2781
436;1.2365704999992886;2781
437;1.2394251999994594;2781
438;1.2415461000000505;2780
439;1.2445229000004474;2779
440;1.2463802999991458;2779
441;1.2496412000000419;2779
442;1.2525874999992084;2778
443;1.2555828000004112;2777
444;1.258333899999343;2776
445;1.260734900000898;2776
446;1.2636213999994652;2776
447;1.2666331000000355;2775
448;1.2694816000002902;2774
449;1.272701899999447;2773
450;1.2755286999999953;2772
451;1.2774635999994643;2771
452;1.2795492000004742;2771
453;1.2827618999999686;2770
454;1.2857647000000725;2769
455;1.2888590000002296;2768
456;1.291497000000163;2767
457;1.2947638999994524;2766
458;1.2977527999992162;2765
459;1.3003590000007534;2764
460;1.3027543999996851;2764
461;1.305537700000059;2762
462;1.308498899999904;2761
463;1.3114891999994143;2759
464;1.3144929000009142;2758
465;1.31749900000068;2757
466;1.3206946999998763;2755
467;1.3236866999995982;2754
468;1.3265217999996821;2752
469;1.3294674000007944;2751
470;1.3316527999995742;2749
471;1.3347642999997333;2748
472;1.3378097000004345;2746
473;1.340665199999421;2745
474;1.3437219000006735;2743
475;1.34669329999997;2741
476;1.3496670000004087;2740
477;1.352717499999926;2738
478;1.3558057000009285;2736
479;1.358458900000187;2734
480;1.3616089000006468;2732
481;1.3646224000003713;2729
482;1.3676240999993752;2727
483;1.371118999999453;2725
484;1.3740152999998827;2723
485;1.3768225999992865;2721
486;1.3810045999998692;2718
487;1.383990399999675;2716
488;1.3868268999995053;2714
489;1.3897209000006114;2711
490;1.3927755999993678;2709
491;1.395642699999371;2707
492;1.3986306000006152;2705
493;1.4020139999993262;2702
494;1.4050060999998095;2699
495;1.4074868000006973;2697
496;1.4098618999996688;2695
497;1.413003800000297;2693
498;1.4158337000008032;2690
499;1.4187359000006836;2687
500;1.4218321000007563;2685
501;1.4255520999995497;2682
502;1.4286570999993273;2679
503;1.431687399999646;2677
504;1.4344567999996798;2674
505;1.43753789999937;2672
506;1.440392200000133;2669
507;1.442688299999645;2666
508;1.4455378000002383;2664
509;1.4487542000006215;2661
510;1.4527770999993663;2657
511;1.4568994000001112;2653
512;1.459469800000079;2650
513;1.461474100000487;2647
514;1.4634994999996707;2646
515;1.4666737999996258;2643
516;1.4696308999991743;2640
517;1.472696900000301;2637
518;1.4754544999996142;2635
519;1.4786867999991955;2632
520;1.481672100000651;2628
521;1.484671199999866;2625
522;1.4876657000004343;2622
523;1.490775800000847;2618
524;1.4935636999998678;2615
525;1.4967142999994394;2612
526;1.499536100000114;2609
527;1.502715700000408;2605
528;1.505513100000826;2602
529;1.5085256999991543;2599
530;1.5114690999998857;2596
531;1.5146464999997988;2592
532;1.5176898000008805;2589
533;1.5207295000000158;2585
534;1.5235312000004342;2582
535;1.525351000000228;2580
536;1.527621299999737;2577
537;1.5306311000003916;2574
538;1.5336237999999867;2571
539;1.5365485999991506;2567
540;1.5395313999997597;2564
541;1.5426592999992863;2560
542;1.5454669999999169;2557
543;1.5484386000007362;2552
544;1.5516478999998071;2549
545;1.5546579000001657;2546
546;1.5576861000008648;2542
547;1.5606922999995732;2539
548;1.5639618999994127;2535
549;1.5669183999998495;2531
550;1.5697022000003926;2528
551;1.572698500000115;2525
552;1.5756292000005487;2521
553;1.5786215999996784;2518
554;1.5806592000008095;2515
555;1.583509199999753;2512
556;1.5865207000006194;2508
557;1.5896544000006543;2504
558;1.59260870000071;2500
559;1.5956301000005624;2497
560;1.5986028999996051;2493
561;1.6016294000000926;2489
562;1.6046119000002363;2485
563;1.6074287999999797;2482
564;1.6097055000009277;2479
565;1.612605899999835;2476
566;1.6144709000000148;2473
567;1.6176080999994156;2470
568;1.6204787000006036;2467
569;1.62277929999982;2463
570;1.6254862999994657;2459
571;1.6274935000001278;2457
572;1.6294426000004023;2454
573;1.6314660999996704;2452
574;1.633612699999503;2449
575;1.6364967999998044;2446
576;1.639488299999357;2442
577;1.6424838999992062;2438
578;1.6455858000008448;2434
579;1.648335699999734;2431
580;1.651551400000244;2427
581;1.6534405000002153;2423
582;1.6565451999995275;2421
583;1.6583427999994456;2417
584;1.6604981000000407;2415
585;1.6623791000001802;2412
586;1.6643825999999535;2410
587;1.6664849000007962;2407
588;1.669765799999368;2405
589;1.6726283999996667;2401
590;1.6754488999995374;2397
591;1.678513999999268;2394
592;1.6818010000006325;2390
593;1.6846435999996174;2386
594;1.6876262000005227;2382
595;1.6907257000002573;2378
596;1.6935604000009334;2375
597;1.6965937999993912;2371
598;1.699583800000255;2367
599;1.7024278999997478;2364
600;1.705637700000807;2359
601;1.7085016000000905;2356
602;1.710680300000604;2352
603;1.7134688999994978;2349
604;1.7167410999991262;2346
605;1.7195847000002686;2343
606;1.7226807000006374;2339
607;1.7256032999994204;2335
608;1.7286294000005;2332
609;1.7304676000003383;2329
610;1.7325412999998662;2326
611;1.7355164000000514;2324
612;1.738516699999309;2320
613;1.7414298999992752;2316
614;1.7444921000005706;2313
615;1.7474655000005441;2310
616;1.7504719999997178;2306
617;1.7535325000008015;2302
618;1.756672299999991;2299
619;1.759504300000117;2296
620;1.761677200000122;2292
621;1.7645587999995769;2289
622;1.7676202999991801;2286
623;1.770437299999685;2282
624;1.773439700000381;2279
625;1.7753945999993448;2276
626;1.7775682999999844;2274
627;1.7793899000007514;2272
628;1.78152240000054;2270
629;1.7835727000001498;2267
630;1.7866826999998011;2265
631;1.7896712000001571;2261
632;1.7925407999991876;2258
633;1.7956720999991376;2255
634;1.7986858999993274;2251
635;1.8016318999998475;2248
636;1.8044356999998854;2244
637;1.807542000000467;2241
638;1.8106067000007897;2238
639;1.813464799999565;2235
640;1.8165394000006927;2232
641;1.8197811000009096;2228
642;1.8226794000001973;2224
643;1.8255396999993536;2221
644;1.8290352999993047;2218
645;1.8314945000001899;2214
646;1.833691199999521;2212
647;1.836641600000803;2210
648;1.8398923999993713;2207
649;1.8424266000001808;2204
650;1.8446648999997706;2201
651;1.847594000000754;2199
652;1.8506754000009096;2196
653;1.853831500000524;2193
654;1.8566869000005681;2190
655;1.858712999999625;2188
656;1.8615733000006003;2186
657;1.8645696000003227;2183
658;1.8677681000008306;2181
659;1.8706865000003745;2178
660;1.8738008000000264;2175
661;1.8767344999996567;2172
662;1.879425999999512;2170
663;1.8817839000003005;2168
664;1.884643800000049;2165
665;1.8877838000007614;2163
666;1.8904665999998542;2160
667;1.8923998000009306;2158
668;1.8944785999992746;2157
669;1.8965232999998989;2155
670;1.8997725999997783;2153
671;1.9026972999999998;2151
672;1.9056108000004315;2149
673;1.9086040999991383;2146
674;1.9116596999992908;2144
675;1.9144703000001755;2142
676;1.917500999999902;2140
677;1.9203959000005852;2137
678;1.9236192999997002;2135
679;1.9266506000003574;2134
680;1.9284236999992572;2132
681;1.931685400000788;2130
682;1.934490100000403;2128
683;1.936482099999921;2126
684;1.9385445000007167;2125
685;1.940464900000734;2123
686;1.9424175999993167;2122
687;1.9455778999999893;2121
688;1.9483921999999438;2119
689;1.9515501000005315;2117
690;1.9547167000000627;2115
691;1.9573493999996572;2113
692;1.9594885000005888;2112
693;1.9950069999995321;2095
694;1.997780600000624;2094
695;2.0005220000002737;2092
696;2.0035167999994883;2091
697;2.006476099999418;2090
698;2.012371799999528;2088
699;2.0143097000000125;2087
700;2.0164994999995542;2086
701;2.019898900000044;2085
702;2.022565499999473;2084
703;2.025511399999232;2084
704;2.028779399999621;2083
705;2.0317135000004782;2082
706;2.0347072999993543;2081
707;2.037838300000658;2080
708;2.041072300000451;2079
709;2.043527499999982;2079
710;2.046823399999994;2078
711;2.050060300000041;2078
712;2.0528133000007074;2077
713;2.055811399999584;2076
714;2.0588102000001527;2076
715;2.0616227999998955;2076
716;2.0644771000006585;2076
717;2.066470899999331;2076
