;time;amplitude
0;0.0032008999987738207;2528
1;0.006390299999111448;2520
2;0.010399599999800557;2509
3;0.014390399999683723;2498
4;0.01840719999927387;2486
5;0.021821999998792307;2474
6;0.024874199998521362;2466
7;0.027926799999477225;2458
8;0.031106399999771384;2448
9;0.03411549999873387;2439
10;0.03698679999979504;2431
11;0.0403587000000698;2423
12;0.0428857999995671;2413
13;0.04616369999894232;2405
14;0.05016579999937676;2396
15;0.052908300000126474;2385
16;0.05599219999930938;2377
17;0.05879039999854285;2368
18;0.0607609999988199;2361
19;0.06382560000020021;2356
20;0.06678420000025653;2347
21;0.06979779999892344;2338
22;0.07285159999992175;2330
23;0.07576009999866073;2321
24;0.07882749999953376;2311
25;0.08180100000026869;2304
26;0.08480059999965306;2296
27;0.08785639999950945;2288
28;0.09092369999962102;2279
29;0.09383139999954437;2270
30;0.09743729999900097;2262
31;0.10140460000002349;2250
32;0.10515039999881992;2239
33;0.10785559999931138;2230
34;0.11091429999942193;2222
35;0.11388959999931103;2213
36;0.11688259999937145;2205
37;0.11996219999855384;2196
38;0.12272419999862905;2188
39;0.12582490000022517;2181
40;0.12916429999859247;2172
41;0.13186569999925268;2164
42;0.1348662999989756;2156
43;0.1380740999993577;2148
44;0.1410000999985641;2140
45;0.14428529999895545;2131
46;0.14804869999898074;2122
47;0.15114600000015344;2112
48;0.15389129999857687;2104
49;0.15711349999946833;2097
50;0.16009999999914726;2088
51;0.16312359999938053;2081
52;0.16584340000008524;2073
53;0.1694243000001734;2066
54;0.17229690000021947;2057
55;0.17633779999960097;2048
56;0.18033829999876616;2038
57;0.18433179999919957;2028
58;0.18828339999890886;2017
59;0.19131109999943874;2009
60;0.19533429999864893;2001
61;0.19934009999997215;1990
62;0.20287509999980102;1980
63;0.20579389999875275;1972
64;0.2092529999990802;1964
65;0.21225679999952263;1956
66;0.21527149999928952;1949
67;0.21925009999904432;1941
68;0.2217365999986214;1932
69;0.22375540000030014;1927
70;0.22570809999888297;1922
71;0.22771909999937634;1917
72;0.23078249999889522;1913
73;0.23384179999993648;1905
74;0.23583869999856688;1899
75;0.23883719999867026;1893
76;0.2418032999994466;1886
77;0.24479059999976016;1879
78;0.2477827000002435;1873
79;0.25082649999967543;1866
80;0.25365189999865834;1858
81;0.2557521999988239;1853
82;0.25887109999894165;1848
83;0.2620207999989361;1840
84;0.2649590000000899;1834
85;0.2680275000002439;1827
86;0.27084629999990284;1822
87;0.27370949999931327;1816
88;0.27701840000008815;1809
89;0.28001839999888034;1803
90;0.2830080999992788;1796
91;0.28607759999977134;1791
92;0.2890927999997075;1785
93;0.29191699999864795;1779
94;0.2949165999998513;1773
95;0.2979682999994111;1767
96;0.3009262999985367;1761
97;0.303908699999738;1755
98;0.3072480999999243;1749
99;0.31134059999931196;1743
100;0.3153322999987722;1736
101;0.3193470999995043;1729
102;0.32166030000007595;1723
103;0.32372749999922235;1719
104;0.3256719000000885;1716
105;0.3287460999999894;1712
106;0.3306591999989905;1707
107;0.3330528999995295;1704
108;0.3360276999992493;1699
109;0.33881300000030024;1695
110;0.34074239999972633;1690
111;0.344011799999862;1687
112;0.3466986999992514;1681
113;0.35001910000028147;1677
114;0.3530230999986088;1672
115;0.35579109999889624;1667
116;0.3597868999986531;1661
117;0.3631537000001117;1657
118;0.3661893999997119;1652
119;0.36916459999883955;1648
120;0.3717341999999917;1645
121;0.37362430000030145;1641
122;0.3756543999988935;1639
123;0.377776499999527;1636
124;0.3797151999988273;1633
125;0.38155339999866555;1631
126;0.38360149999971327;1629
127;0.3855370999990555;1626
128;0.3876193999985844;1624
129;0.38954369999919436;1621
130;0.39165329999923415;1620
131;0.394193299998733;1617
132;0.3967308999999659;1614
133;0.3986066999987088;1611
134;0.40068889999929524;1609
135;0.40372000000024855;1606
136;0.4066958000003069;1603
137;0.4088973999987502;1600
138;0.4117871999987983;1598
139;0.4147183999994013;1595
140;0.41669809999984864;1593
141;0.4186714999996184;1591
142;0.4206634000001941;1590
143;0.4236793000000034;1588
144;0.4256647000001976;1586
145;0.42769399999997404;1584
146;0.4296491999994032;1582
147;0.4316739999994752;1581
148;0.43376209999951243;1579
149;0.4367368000002898;1577
150;0.43974789999992936;1575
151;0.4417070999988937;1573
152;0.4436617999999726;1571
153;0.4460540999989462;1570
154;0.4490033999991283;1568
155;0.4520050999999512;1566
156;0.4547493999998551;1565
157;0.45832749999863154;1563
158;0.46187949999875855;1560
159;0.4662923999985651;1559
160;0.4702323000001343;1557
161;0.4731088999997155;1555
162;0.4758987999994133;1554
163;0.4789967999986402;1553
164;0.4818783999999141;1551
165;0.4847293999991962;1551
166;0.4877715000002354;1550
167;0.49100519999956305;1549
168;0.49373109999942244;1548
169;0.4955768999989232;1547
170;0.49768089999997756;1547
171;0.49968259999877773;1547
172;0.5016172999985429;1547
173;0.5036774999989575;1546
174;0.5068675999991683;1546
175;0.50974320000023;1546
176;0.5117525999994541;1546
177;0.5137725999993563;1546
178;0.5157060000001366;1546
179;0.517743899999914;1546
180;0.5196796000000177;1547
181;0.5219660999991902;1547
182;0.5247194999992644;1547
183;0.5270330999992439;1548
184;0.5297328999986348;1548
185;0.5317415999998047;1549
186;0.5337448999998742;1549
187;0.5356649999994261;1550
188;0.5378037999998924;1550
189;0.5407182999988436;1550
190;0.5426735000000917;1551
191;0.5447459999995772;1552
192;0.5469505000000936;1552
193;0.5499356000000262;1553
194;0.5529159999987314;1554
195;0.5557541999987734;1556
196;0.5586888999987423;1557
197;0.5608998999996402;1559
198;0.5642591999985598;1560
199;0.5672396999998455;1562
200;0.5700485999986995;1563
201;0.5727478999997402;1565
202;0.5746154999997088;1566
203;0.5767232999987755;1568
204;0.578739399999904;1569
205;0.5806506999997509;1570
206;0.5826664999985951;1571
207;0.584695699999429;1573
208;0.5865498999992269;1574
209;0.5888235000002169;1576
210;0.592106000000058;1577
211;0.5963412999990396;1580
212;0.600486199999068;1583
213;0.6043665999986843;1587
214;0.6080986999986635;1590
215;0.6125694999991538;1594
216;0.6165032999997493;1598
217;0.6203592000001663;1602
218;0.6243409999988216;1606
219;0.6272609999996348;1610
220;0.6313336000002892;1613
221;0.635328299998946;1618
222;0.6393372999991698;1622
223;0.6433332999986305;1627
224;0.6473043999994843;1632
225;0.651299499999368;1637
226;0.6538060000002588;1642
227;0.6569338999997854;1647
228;0.6609724999998434;1651
229;0.6640709000002971;1656
230;0.6672916999996232;1660
231;0.670935099999042;1665
232;0.6753560999986803;1671
233;0.6793536999994103;1678
234;0.6833447999997588;1683
235;0.6868918000000122;1690
236;0.6902972999996564;1695
237;0.6943350000001374;1701
238;0.6983309999995981;1708
239;0.7019718999999895;1714
240;0.7047616999989259;1719
241;0.7078096999994159;1724
242;0.7109306999991531;1730
243;0.7149946999998065;1736
244;0.7190032999988034;1743
245;0.7221319999989646;1749
246;0.7250865999994858;1756
247;0.7293195000002015;1762
248;0.7332976999987295;1769
249;0.7367713000003278;1777
250;0.7402853000003233;1785
251;0.744335499999579;1792
252;0.7483487999998033;1800
253;0.7523062000000209;1807
254;0.7547737999993842;1814
255;0.7576965999996901;1820
256;0.7597466999995959;1826
257;0.7627612999986013;1830
258;0.7647567999993043;1836
259;0.7678187999990769;1841
260;0.7707723999992595;1847
261;0.773754399999234;1854
262;0.7756240999988222;1860
263;0.7776460999994015;1864
264;0.7797731999999087;1869
265;0.78301189999911;1874
266;0.786001499998747;1881
267;0.7887150999995356;1887
268;0.7907144999990123;1893
269;0.7925692999997409;1897
270;0.795904699998573;1902
271;0.7989226999998209;1910
272;0.801929299999756;1917
273;0.8049430999999458;1923
274;0.8080049000000145;1931
275;0.8109875999998621;1938
276;0.8139917999997124;1945
277;0.8170109000002412;1952
278;0.8198518999997759;1959
279;0.8227372999990621;1966
280;0.8247166999990441;1974
281;0.8277178999996977;1979
282;0.830721899999844;1987
283;0.8327263999999559;1993
284;0.8346757999988768;1998
285;0.8366329000000405;2003
286;0.8388706999994611;2008
287;0.8418480999989697;2015
288;0.8448754000000918;2022
289;0.8469420000001264;2029
290;0.8498572999997123;2035
291;0.852831199999855;2043
292;0.8548522000000958;2050
293;0.8578656999998202;2057
294;0.8608731999993324;2065
295;0.8641083999991679;2073
296;0.8671249999988504;2082
297;0.8697252999991179;2090
298;0.8718125999985205;2096
299;0.874874600000112;2103
300;0.8778688999991573;2112
301;0.8808768999988388;2120
302;0.8838808000000427;2128
303;0.8868357999999716;2136
304;0.8902641999993648;2144
305;0.8932382999992114;2153
306;0.8962532999994437;2161
307;0.9003006000002642;2169
308;0.9037876999991568;2181
309;0.9071128999985376;2190
310;0.9100799999996525;2199
311;0.9130700999994588;2208
312;0.9160491999991791;2216
313;0.9187086999991152;2224
314;0.920704599999226;2230
315;0.9227106999987882;2236
316;0.9246705999994447;2241
317;0.926840699999957;2247
318;0.9297145000000455;2254
319;0.931669099998544;2261
320;0.933661299999585;2266
321;0.935692699998981;2272
322;0.9376385999985359;2278
323;0.9407421999985672;2284
324;0.9437456999985443;2293
325;0.9457740999987436;2301
326;0.9477647999992769;2307
327;0.9497347999986232;2313
328;0.9517043999985617;2319
329;0.9536525999992591;2324
330;0.9567349999997532;2331
331;0.9586602999988827;2338
332;0.9606610999999248;2344
333;0.9625771999999415;2349
334;0.9646794000000227;2356
335;0.9666478999988612;2361
336;0.9686261999995622;2366
337;0.9706064999991213;2373
338;0.97256489999927;2378
339;0.974619900000107;2384
340;0.9766411000000517;2390
341;0.9786236999989342;2395
342;0.9806201999999757;2401
343;0.9826145999995788;2407
344;0.9845425999992585;2412
345;0.9866425000000163;2417
346;0.9886312999988149;2424
347;0.9905554999986634;2429
348;0.9925408999988576;2435
349;0.9945412999986729;2441
350;0.9965412999990804;2445
351;0.998544199999742;2452
352;1.000544099999388;2458
353;1.0025401999992027;2463
354;1.0046428999994532;2469
355;1.0066190999987157;2476
356;1.0086151999985304;2481
357;1.0105888999987656;2487
358;1.0125841999997647;2493
359;1.0147221999995963;2499
360;1.0175748999990901;2506
361;1.0206818999995448;2515
362;1.0226173999999446;2521
363;1.024615599999379;2527
364;1.0266228999989835;2533
365;1.0286189999987982;2539
366;1.030616399999417;2545
367;1.0326167000002897;2551
368;1.0352309999998397;2557
369;1.038199499998882;2564
370;1.0411970999994082;2574
371;1.0440753000002587;2582
372;1.0471282999988034;2591
373;1.0501249999997526;2600
374;1.0527258000001893;2608
375;1.0547043999995367;2615
376;1.0567348999993555;2621
377;1.0589170999992348;2626
378;1.0619977999995172;2633
379;1.0648681000002398;2642
380;1.0680213999985426;2651
381;1.0707586999997147;2659
382;1.0730115999995178;2666
383;1.0757696000000578;2673
384;1.0777204999994865;2680
385;1.0797256999994715;2686
386;1.082817200000136;2692
387;1.0857634999993024;2700
388;1.0877468999988196;2708
389;1.0896296999999322;2713
390;1.0916036999988137;2719
391;1.0935871999990923;2724
392;1.0969509999995353;2732
393;1.0997126999991451;2740
394;1.1017457999987528;2747
395;1.103603399998974;2752
396;1.1067181999987952;2758
397;1.1097164000002522;2766
398;1.111720899998545;2774
399;1.1136781999994128;2779
400;1.1156155999997281;2785
401;1.1177669999997306;2790
402;1.1196408999985579;2796
403;1.1216879000003246;2801
404;1.1237239999991289;2806
405;1.1257244999997056;2811
406;1.127708399999392;2816
407;1.129726799999844;2822
408;1.1317170999991504;2827
409;1.1336469999987457;2832
410;1.1357095999992453;2837
411;1.138747400000284;2844
412;1.1406255000001693;2850
413;1.1428527999996732;2856
414;1.1458055999992212;2861
415;1.14775279999958;2868
416;1.1496422000000166;2873
417;1.1517714000001433;2878
418;1.1537324000000808;2883
419;1.1556426999995892;2888
420;1.1576618999988568;2892
421;1.1597811999999976;2898
422;1.1618111999996472;2903
423;1.1637696999987384;2908
424;1.1657383000001573;2913
425;1.167812399999093;2918
426;1.1706556999997701;2923
427;1.1726187999993272;2930
428;1.1746499999990192;2934
429;1.1766412999986642;2939
430;1.1787531999998464;2944
431;1.1807415000002948;2949
432;1.182771399999183;2954
433;1.1847335999991628;2959
434;1.1879603999987012;2964
435;1.1908733999989636;2972
436;1.1938176000003295;2978
437;1.1967958999994153;2985
438;1.199780799999644;2992
439;1.2028149999987363;2999
440;1.2061151999987487;3007
441;1.2090232999998989;3014
442;1.211871899999096;3021
443;1.2150404999993043;3027
444;1.2180516999997053;3034
445;1.2209695000001375;3040
446;1.2240621000000829;3047
447;1.2270489000002271;3054
448;1.2300861999992776;3060
449;1.233098799999425;3066
450;1.2359429999996792;3073
451;1.2390760999987833;3078
452;1.2421040999997786;3085
453;1.2451234000000113;3091
454;1.24810830000024;3097
455;1.2510948999988614;3104
456;1.2538786999994045;3110
457;1.2568316999986564;3116
458;1.2598378999991837;3121
459;1.2627811000002112;3127
460;1.2660385999988648;3132
461;1.2687823999985994;3138
462;1.2707696999987093;3142
463;1.2739237999994657;3146
464;1.2769677999986015;3152
465;1.2799623999999312;3157
466;1.282909399998971;3163
467;1.2857759999988048;3169
468;1.2880150999990292;3172
469;1.2909526999992522;3177
470;1.2939605999999912;3182
471;1.2970095000000583;3187
472;1.299903600000107;3192
473;1.3029341000001295;3196
474;1.3057902000000468;3201
475;1.3087763999992603;3206
476;1.3455068999992363;3219
477;1.3484042000000045;3261
478;1.3508186999988538;3264
479;1.3536912999989;3267
480;1.3567237999995996;3271
481;1.362936699999409;3275
482;1.366626199998791;3282
483;1.3688043000001926;3285
484;1.371672799999942;3288
485;1.3736633999997139;3291
486;1.3756665999990219;3292
487;1.3776428000001033;3295
488;1.3796263999993243;3296
489;1.381647799998973;3298
490;1.3836315999997169;3300
491;1.3857631999999285;3302
492;1.3877409999986412;3304
493;1.389729599999555;3306
494;1.3917101999995793;3307
495;1.3937104999986332;3309
496;1.3957472000001871;3310
497;1.397748599998522;3312
498;1.3997498999997333;3313
499;1.4017502999995486;3314
500;1.4036579000003258;3316
501;1.4057505999990099;3317
502;1.4077504999986559;3319
503;1.4097621999990224;3320
504;1.4117590999994718;3321
505;1.4137529999989056;3322
506;1.415802599998642;3324
507;1.4177844999994704;3325
508;1.4196816999992734;3326
509;1.4217805999996926;3327
510;1.4236989000000904;3328
511;1.4255778999995528;3329
512;1.4275941999985662;3330
513;1.4296035999996093;3331
514;1.4315590999995038;3332
515;1.4336375999992015;3333
516;1.4356392999998207;3334
517;1.4377856999999494;3335
518;1.4399006999992707;3335
519;1.4428978999985702;3336
520;1.4457532999986142;3337
521;1.4477086999995663;3338
522;1.4507084999986546;3339
523;1.4526413999992656;3339
524;1.4557992999998532;3340
525;1.4587032999988878;3340
526;1.4605818;3341
527;1.4627492999989045;3341
528;1.464697299999898;3342
529;1.4667601000001014;3342
530;1.468747599999915;3343
531;1.4707574999993085;3343
532;1.4737877999996272;3344
533;1.4757657999998628;3344
534;1.477677799999583;3344
535;1.4796888999990188;3344
536;1.4827454999995098;3344
537;1.4847185999988142;3344
538;1.4866165999992518;3344
539;1.4897209999999177;3344
540;1.4917422999988048;3343
541;1.4937551999992138;3343
542;1.495694999999614;3343
543;1.4977777999993123;3343
544;1.5009300999990955;3342
545;1.5038296999991871;3341
546;1.5067784000002575;3341
547;1.5087213999995583;3340
548;1.5109391999994841;3339
549;1.5139280000003055;3338
550;1.5168522999993002;3338
551;1.5188183999998728;3337
552;1.5207024999999703;3336
553;1.5228394999994634;3335
554;1.5251867999995739;3335
555;1.528245199999219;3333
556;1.5312458999997034;3331
557;1.5341169999992417;3330
558;1.5366794000001391;3328
559;1.5388442000003124;3327
560;1.541841199999908;3325
561;1.5448436999995465;3323
562;1.5479150999999547;3321
563;1.5509017999993375;3319
564;1.5537965000003169;3317
565;1.5570038999994722;3315
566;1.5600020000001678;3312
567;1.5629004999991594;3310
568;1.5660293999990245;3308
569;1.5690789999989647;3305
570;1.5717589999985648;3303
571;1.5737274000002799;3301
572;1.5757011999994575;3299
573;1.5789801999999327;3297
574;1.581973199999993;3294
575;1.5849653999994189;3291
576;1.5878217999998014;3287
577;1.5911882999989757;3284
578;1.5940312999991875;3281
579;1.5970418999986578;3278
580;1.6000363000002835;3274
581;1.6028286999990087;3271
582;1.6060297999993054;3268
583;1.6090684999999212;3264
584;1.612055399999008;3261
585;1.6150273000002926;3257
586;1.6180205999989994;3254
587;1.620854099999633;3250
588;1.6245008999994752;3247
589;1.6282109999992826;3241
590;1.6322529999997641;3236
591;1.6361481999992975;3231
592;1.6407939000000624;3225
593;1.6440456000000268;3218
594;1.6469727999992756;3214
595;1.6498266999988118;3209
596;1.653014899999107;3206
597;1.6557651999992231;3201
598;1.6588762999999744;3196
599;1.6618999000002077;3192
600;1.6646985999996105;3187
601;1.6666702999991685;3182
602;1.668786899999759;3180
603;1.671887999998944;3176
604;1.6748047000000952;3171
605;1.676668799998879;3166
606;1.6788261000001512;3163
607;1.6817761000002065;3158
608;1.6847579999994196;3153
609;1.6867063999998209;3148
610;1.6898122999991756;3144
611;1.6927270999985922;3138
612;1.6957991999988735;3132
613;1.6987759999992704;3127
614;1.7006961999995838;3122
615;1.7037636999993993;3117
616;1.7069694999991043;3112
617;1.7097799000002851;3104
618;1.7128991999998107;3099
619;1.715904299999238;3093
620;1.7189285999993444;3087
621;1.72179049999977;3082
622;1.7247207000000344;3076
623;1.7269990999993752;3069
624;1.7299808999996458;3064
625;1.7329523999997036;3058
626;1.735948699999426;3052
627;1.7386814000001323;3046
628;1.7413512999992236;3041
629;1.7437486999988323;3035
630;1.7456575999985944;3029
631;1.7476724999996804;3025
632;1.7497074000002613;3020
633;1.752844599999662;3015
634;1.7549703999993653;3010
635;1.7577450999997382;3004
636;1.7596376000001328;2998
637;1.7617511999997078;2994
638;1.763765899999271;2990
639;1.7656322999991971;2985
640;1.767765499998859;2980
641;1.7697530999994342;2975
642;1.7727854999993724;2970
643;1.7758306999985507;2964
644;1.7786787999993976;2956
645;1.7807850999997754;2950
646;1.782781599998998;2945
647;1.7847416999993584;2940
648;1.786679599999843;2935
649;1.7897517999990669;2930
650;1.7917314999995142;2923
651;1.7937205999987782;2918
652;1.7957592999991903;2913
653;1.7988832999999431;2908
654;1.8018875999987358;2900
655;1.8048002999985329;2894
656;1.806748199998765;2887
657;1.80876840000019;2882
658;1.8121109999992768;2875
659;1.8149634999990667;2866
660;1.8179549999986193;2860
661;1.8208343999995122;2853
662;1.8239469999989524;2846
663;1.8269430000000284;2837
664;1.829947499998525;2830
665;1.8329768000003241;2822
666;1.835932199999661;2814
667;1.8389544999990903;2807
668;1.8418860000001587;2798
669;1.8448838999993313;2790
670;1.8479293000000325;2782
671;1.8508845999986079;2774
672;1.8536506000000372;2765
673;1.856960799999797;2758
674;1.8599576999986311;2749
675;1.8629717999992863;2740
676;1.8659525999992184;2732
677;1.8689689000002545;2724
678;1.8720993999995699;2716
679;1.875072699998782;2706
680;1.8780372999990504;2697
681;1.881038899999112;2689
682;1.8841045999997732;2681
683;1.8867921000000933;2673
684;1.890085299999555;2664
685;1.8930762999989383;2655
686;1.8960455999986152;2646
687;1.8990716999996948;2637
688;1.902085599998827;2629
689;1.9050686999999016;2621
690;1.9080439999997907;2611
691;1.9110497999990912;2601
692;1.9140685000002122;2593
693;1.9179171999985556;2582
694;1.921080099999017;2573
695;1.9240405000000464;2563
696;1.9270772999989276;2555
697;1.9300445999997464;2547
698;1.9330689999987953;2539
699;1.9360741000000417;2529
700;1.939065299999129;2521
701;1.942051599999104;2512
702;1.9449898000002577;2503
703;1.9478387999988627;2494
704;1.9508464999998978;2487
705;1.953793200000291;2478
706;1.9570680999986507;2469
707;1.9600042999991274;2460
708;1.9629956999997376;2451
709;1.9660886000001483;2442
710;1.9687997000000905;2434
711;1.9710359999990033;2426
712;1.9740103999993153;2418
713;1.9769878999995854;2410
714;1.9800697999999102;2402
715;1.9830642999986594;2393
716;1.9860779999999068;2385
