;time;amplitude
0;0.003494299999147188;2401
1;0.007077399999616318;2400
2;0.010463000000527245;2400
3;0.013423000000329921;2400
4;0.01716130000022531;2399
5;0.020344000000477536;2399
6;0.022957299999688985;2398
7;0.025895299999319832;2398
8;0.029117399999449844;2397
9;0.03191479999986768;2396
10;0.03393879999930505;2396
11;0.03596839999954682;2395
12;0.03892699999960314;2395
13;0.04198609999912151;2394
14;0.04496079999989888;2394
15;0.04795809999995981;2393
16;0.05099069999960193;2393
17;0.0540127999993274;2393
18;0.05703010000070208;2393
19;0.06003450000025623;2392
20;0.061981000000741915;2392
21;0.06532890000016778;2391
22;0.0682567999992898;2390
23;0.07125629999973171;2390
24;0.0739291999998386;2390
25;0.07691320000049018;2390
26;0.07890399999996589;2390
27;0.08095200000025216;2389
28;0.08396410000023025;2389
29;0.08591639999940526;2388
30;0.08899899999960326;2388
31;0.09209399999963352;2388
32;0.09512139999969804;2388
33;0.0981802999995125;2387
34;0.10113970000020345;2387
35;0.10417980000056559;2386
36;0.1058668999994552;2386
37;0.10810029999993276;2386
38;0.11122860000068613;2386
39;0.11423389999981737;2385
40;0.11722949999966659;2385
41;0.12026499999956286;2385
42;0.12292379999962577;2384
43;0.12624270000014803;2384
44;0.12922319999961474;2383
45;0.1322268999992957;2383
46;0.13505260000056296;2383
47;0.1378965000003518;2383
48;0.14091840000037337;2383
49;0.14399210000010498;2382
50;0.14700669999911042;2382
51;0.15009330000066257;2382
52;0.15303529999982857;2382
53;0.15589659999932337;2381
54;0.15912050000042655;2381
55;0.16212429999904998;2381
56;0.16513520000080462;2381
57;0.16811059999963618;2381
58;0.17107399999986228;2382
59;0.17391139999926963;2382
60;0.17697120000048017;2382
61;0.17991489999985788;2381
62;0.18305309999959718;2381
63;0.18605240000033518;2381
64;0.18888839999999618;2381
65;0.19102840000050492;2381
66;0.1940539000006538;2381
67;0.19704749999982596;2381
68;0.20010410000031698;2382
69;0.2030637999996543;2382
70;0.20579799999904935;2382
71;0.20798499999909836;2382
72;0.21097200000076555;2382
73;0.2140216000007058;2382
74;0.21705610000026354;2382
75;0.22005600000011327;2382
76;0.22289199999977427;2383
77;0.2261209999996936;2383
78;0.2291205000001355;2383
79;0.23211889999947743;2383
80;0.235093199999028;2383
81;0.2380948999998509;2383
82;0.24115440000059607;2383
83;0.24412320000010368;2383
84;0.24712589999944612;2383
85;0.25005760000021837;2384
86;0.2530177000007825;2384
87;0.2559734999995271;2384
88;0.25916270000016084;2384
89;0.2620652000005066;2384
90;0.26531860000068264;2385
91;0.269581599999583;2385
92;0.27354580000064743;2385
93;0.2776455999992322;2385
94;0.2810669999998936;2385
95;0.2840116000006674;2385
96;0.2872523000005458;2386
97;0.28993439999976545;2386
98;0.2918831000006321;2387
99;0.2939643999998225;2387
100;0.2969283999991603;2387
101;0.2991156999996747;2387
102;0.30081109999991895;2388
103;0.30292849999932514;2388
104;0.30491690000053495;2388
105;0.3068946999992477;2389
106;0.30997759999991104;2389
107;0.3119685000001482;2389
108;0.31494910000037635;2390
109;0.3169285999993008;2390
110;0.318924799999877;2391
111;0.3209151999999449;2391
112;0.3228251000000455;2391
113;0.3259951000000001;2391
114;0.3289258000004338;2391
115;0.3324830999990809;2392
116;0.3362952999996196;2392
117;0.33899139999994077;2393
118;0.3408789999994042;2394
119;0.34288310000010824;2394
120;0.3448810999998386;2394
121;0.3471718000000692;2395
122;0.3498662999991211;2396
123;0.3518511000002036;2396
124;0.3539232000002812;2396
125;0.3558842000002187;2397
126;0.358880699999645;2397
127;0.36108790000071167;2398
128;0.3628941999995732;2398
129;0.3648637000005692;2398
130;0.36686620000000403;2398
131;0.3703170999997383;2399
132;0.3728967000006378;2399
133;0.3760443999999552;2400
134;0.3790895999991335;2401
135;0.3822860000000219;2401
136;0.3850953999990452;2401
137;0.3880757999995694;2401
138;0.39103959999920335;2402
139;0.3941030999994837;2402
140;0.39710940000077244;2403
141;0.4001329999991867;2403
142;0.40322679999917455;2404
143;0.40610580000065966;2404
144;0.4104817000006733;2405
145;0.4143882999997004;2405
146;0.4173157999994146;2406
147;0.42031780000070285;2406
148;0.4229687000006379;2407
149;0.42635209999934887;2407
150;0.4293116999997437;2408
151;0.43231960000048275;2408
152;0.43531310000071244;2408
153;0.4380240999998932;2409
154;0.4409668000007514;2410
155;0.44426580000072136;2411
156;0.44732590000057826;2412
157;0.45027069999923697;2412
158;0.45328320000044187;2413
159;0.45603569999911997;2413
160;0.45915810000042256;2414
161;0.4623095999995712;2415
162;0.46516169999995327;2416
163;0.46814979999908246;2417
164;0.4711475000003702;2418
165;0.47420659999988857;2418
166;0.47709480000048643;2419
167;0.4800966000002518;2420
168;0.48289909999948577;2420
169;0.4861450000007608;2421
170;0.48886619999939285;2421
171;0.49089749999984633;2421
172;0.4939591999991535;2422
173;0.4969584999998915;2423
174;0.49888929999906395;2423
175;0.5009396000004926;2424
176;0.5028815999994549;2424
177;0.5048795000002428;2425
178;0.5068164999993314;2425
179;0.5090536000006978;2425
180;0.5119278999991366;2426
181;0.5151695000004111;2426
182;0.5181623000007676;2427
183;0.5209623999999167;2427
184;0.5242039000004297;2428
185;0.5272225000007893;2428
186;0.5302090000004682;2429
187;0.5332049000007828;2429
188;0.5362280999997893;2430
189;0.5392262999994273;2431
190;0.5418415999993158;2432
191;0.5438788999999815;2432
192;0.5458450999994966;2433
193;0.5477871000002779;2433
194;0.5500100999997812;2433
195;0.5529900999990787;2434
196;0.5557996000006824;2435
197;0.5578468999992765;2436
198;0.5604456000000937;2436
199;0.5634329999993497;2437
200;0.5664448000006814;2437
201;0.570457499999975;2438
202;0.5740086999994674;2439
203;0.5784487000000809;2440
204;0.5824966000000131;2441
205;0.5864689999998518;2442
206;0.589956899999379;2442
207;0.593507800000225;2443
208;0.5975216000006185;2444
209;0.6015133000000787;2445
210;0.6055419000003894;2446
211;0.6078534000007494;2446
212;0.6099140999995143;2447
213;0.6119134000000486;2447
214;0.613910300000498;2447
215;0.6164807999994082;2448
216;0.6204866999996739;2448
217;0.6244652999994287;2449
218;0.628520700000081;2450
219;0.6325173000004725;2450
220;0.6365716000000248;2452
221;0.6390799000000698;2453
222;0.6424420999992435;2453
223;0.6454357000002346;2453
224;0.6484294999991107;2454
225;0.6512562000007165;2455
226;0.6538751000007323;2455
227;0.6558686999997008;2456
228;0.6579968000005465;2456
229;0.660925700000007;2457
230;0.6629097999993974;2457
231;0.665956400000141;2457
232;0.6691773000002286;2458
233;0.6722919999992882;2459
234;0.6753673000002891;2459
235;0.6782812000001286;2460
236;0.6811013000005914;2460
237;0.6841217999990477;2460
238;0.6870801000004576;2461
239;0.6898392999992211;2461
240;0.6922448000004806;2461
241;0.6952309000007517;2462
242;0.6982453000000532;2462
243;0.7012548000002425;2462
244;0.7042454999991605;2463
245;0.707106500000009;2464
246;0.7102537999999186;2464
247;0.7132443999998941;2464
248;0.7162370999994891;2464
249;0.7192637999996805;2465
250;0.7222590999990643;2465
251;0.7252530000005208;2465
252;0.7282524000002013;2466
253;0.7312468000000081;2466
254;0.7342585000005784;2466
255;0.7381301000004896;2467
256;0.7412574999998469;2467
257;0.7442738999998255;2467
258;0.7472557999990386;2467
259;0.7502473999993526;2467
260;0.7531242000004568;2467
261;0.7559022000004916;2468
262;0.7592500999999174;2468
263;0.7622501999994711;2468
264;0.7652457000003778;2468
265;0.7679647999993904;2468
266;0.7712627999990218;2468
267;0.7742729999990843;2468
268;0.7772463000001153;2468
269;0.78025499999967;2468
270;0.7828556999993452;2468
271;0.7848374000004696;2468
272;0.7868615000006685;2468
273;0.788917500000025;2468
274;0.7909423999990395;2468
275;0.7927897999998095;2467
276;0.7951773000004323;2467
277;0.7979204999992362;2467
278;0.79992189999939;2467
279;0.8019091000005574;2467
280;0.8049363999998604;2468
281;0.8070038000005297;2468
282;0.810197299999345;2467
283;0.8129408000004332;2467
284;0.8149212000007537;2468
285;0.8169176999999763;2468
286;0.8189153999992413;2468
287;0.8209401000003709;2468
288;0.8229092999990826;2468
289;0.8258382999993046;2468
290;0.8279719999991357;2468
291;0.8311028999996779;2468
292;0.8340487999994366;2468
293;0.8374593000007735;2467
294;0.8409897000001365;2467
295;0.8441285000008065;2468
296;0.8470455000006041;2467
297;0.8500506000000314;2467
298;0.8530382000008103;2467
299;0.8560613999998168;2467
300;0.8594843999999284;2467
301;0.8635049999993498;2467
302;0.8670555999997305;2467
303;0.8700355000000854;2467
304;0.8729894999996759;2466
305;0.8765089999997144;2466
306;0.8805365000007441;2466
307;0.884535400000459;2465
308;0.8879565000006551;2465
309;0.891591999999946;2464
310;0.8951065000001108;2464
311;0.89788149999913;2463
312;0.9008802999996988;2463
313;0.9028570999998919;2463
314;0.9049534000005224;2462
315;0.9079388999998628;2462
316;0.9101006999990204;2462
317;0.9129030000003695;2462
318;0.914919099999679;2461
319;0.9168917000006331;2461
320;0.9189129000005778;2461
321;0.9209088999996311;2461
322;0.9228729000005842;2461
323;0.9259139999994659;2460
324;0.9279002000002947;2460
325;0.9299052000005759;2460
326;0.931903799999418;2459
327;0.933916500000123;2459
328;0.9359380000005331;2459
329;0.9379914000001008;2459
330;0.9399360000006709;2458
331;0.9432845999999699;2458
332;0.9463054000007105;2457
333;0.9490038000003551;2457
334;0.9523358000005828;2457
335;0.955998899999031;2456
336;0.9594890999997006;2456
337;0.963473800000429;2455
338;0.9674780999994255;2455
339;0.9714383999998972;2454
340;0.9739367999991373;2453
341;0.9772744999991119;2453
342;0.9802701999997225;2452
343;0.9832597000004171;2452
344;0.9862928000002285;2451
345;0.9902034000006097;2451
346;0.9932047000002058;2451
347;0.99621549999938;2450
348;0.999206000000413;2450
349;1.0022387000008166;2449
350;1.005006900000808;2449
351;1.0069251000004442;2448
352;1.0099866000000475;2448
353;1.0135757999996713;2447
354;1.017630399999689;2447
355;1.0210179000005155;2446
356;1.0228681999997207;2446
357;1.0259700999995403;2445
358;1.028978399999687;2445
359;1.0319847999999183;2445
360;1.033996099999058;2444
361;1.0360247999997227;2444
362;1.0388786000003165;2443
363;1.0409720000006928;2443
364;1.0439834999997402;2442
365;1.0469415999996272;2442
366;1.0488987999997335;2441
367;1.0519595999994635;2440
368;1.0539312999990216;2440
369;1.0559219000006124;2440
370;1.0578432000002067;2439
371;1.0598410000002332;2439
372;1.0618424999993294;2439
373;1.0638686000002053;2438
374;1.0658686000006128;2437
375;1.068913099999918;2437
376;1.0708567000001494;2437
377;1.0728629999994155;2436
378;1.0748036999993928;2436
379;1.0767859000006865;2435
380;1.0787560000007943;2435
381;1.0807483999997203;2435
382;1.082819400000517;2434
383;1.08482019999974;2434
384;1.0867655000001832;2434
385;1.088866699999926;2433
386;1.0907817000006617;2433
387;1.0929730000007112;2432
388;1.0949586000006093;2432
389;1.096961100000044;2431
390;1.0989250999991782;2431
391;1.1009506999998848;2430
392;1.102927300000374;2430
393;1.1049237000006542;2430
394;1.106862299999193;2429
395;1.1089451999996527;2429
396;1.1109180000003107;2428
397;1.112955200000215;2428
398;1.1149671999992279;2428
399;1.1168467000006785;2427
400;1.118842500000028;2427
401;1.1208411999996315;2427
402;1.1228981000003841;2426
403;1.1248474000003625;2426
404;1.1268467999998393;2425
405;1.128861200000756;2425
406;1.1308387999997649;2424
407;1.1329187999999704;2424
408;1.1349081999996997;2423
409;1.1369061000004876;2423
410;1.1388669000007212;2422
411;1.1407462999995914;2422
412;1.1427442999993218;2421
413;1.1449654000007286;2421
414;1.1479698000002827;2420
415;1.149990500000058;2420
416;1.1519253000005847;2419
417;1.1539111000001867;2419
418;1.1569638999990275;2418
419;1.158913900000698;2418
420;1.1608329999999114;2418
421;1.1628266000006988;2417
422;1.1649099999995087;2417
423;1.1668422000002465;2416
424;1.1688388000002305;2416
425;1.170851999999286;2415
426;1.172873499999696;2415
427;1.1758525999994163;2414
428;1.1789024999998219;2413
429;1.1808411000001797;2413
430;1.1828449999993609;2413
431;1.1849296000000322;2412
432;1.1869320000005246;2412
433;1.1887399999995978;2411
434;1.1919259000005695;2410
435;1.1939244000004692;2410
436;1.1959033000002819;2409
437;1.1979171999992104;2409
438;1.1999015000001236;2408
439;1.2029007999990426;2408
440;1.2049284000004263;2408
441;1.2069157999994786;2407
442;1.2088438999999198;2407
443;1.2108458000002429;2406
444;1.212842200000523;2406
445;1.2148493000004237;2406
446;1.2168672999996488;2405
447;1.218869899999845;2405
448;1.220866699999533;2405
449;1.2228247999992163;2404
450;1.2248662000001787;2404
451;1.2268466999994416;2403
452;1.2288573000005272;2403
453;1.2309091999995871;2402
454;1.2328961000002892;2402
455;1.234918899999684;2402
456;1.2369283000007272;2401
457;1.2388338000000658;2401
458;1.2409382999994705;2401
459;1.2429597999998805;2400
460;1.244966000000204;2400
461;1.246961700000611;2399
462;1.248970399999962;2399
463;1.250945199999478;2399
464;1.2529790000007779;2398
465;1.2549662000001263;2398
466;1.2568960999997216;2398
467;1.258860399999321;2397
468;1.2608294000001479;2397
469;1.2627852000005078;2397
470;1.2648662999999942;2396
471;1.2668512000000192;2396
472;1.2688684000004287;2395
473;1.270910699999149;2395
474;1.2728117000006023;2395
475;1.2747834999991028;2395
476;1.2767738000002282;2394
477;1.2787733000004664;2394
478;1.2807759999996051;2394
479;1.2828026999995927;2394
480;1.2847636000005878;2393
481;1.286757800000487;2393
482;1.2887561000006826;2393
483;1.2908377999992808;2392
484;1.293955900000583;2392
485;1.295830200000637;2392
486;1.2979598000001715;2392
487;1.2998956999999791;2391
488;1.3018900999995822;2391
489;1.3049477000004117;2391
490;1.3070860000007087;2390
491;1.3099306000003708;2389
492;1.3119009000001824;2389
493;1.3141417000006186;2389
494;1.317196199999671;2388
495;1.3204095999990386;2388
496;1.3243841000003158;2388
497;1.3285906999990402;2387
498;1.3324943000006897;2386
499;1.3354011999999784;2386
500;1.3390994000001228;2386
501;1.3421713999996427;2386
502;1.3453451000004861;2386
503;1.3483352000002924;2385
504;1.351336399999127;2385
505;1.3543491000000358;2384
506;1.357174999999188;2384
507;1.3603433000007499;2384
508;1.3633417999990343;2383
509;1.3663283999994746;2383
510;1.369315199999619;2382
511;1.3722338999996282;2382
512;1.3751661999995122;2382
513;1.378328999999212;2382
514;1.3813343999991048;2382
515;1.3843436000006477;2382
516;1.3873528000003716;2381
517;1.391150600000401;2381
518;1.3943368000000191;2381
519;1.3973294000006717;2381
520;1.4003374999992957;2380
521;1.4032108999999764;2381
522;1.4060220999999729;2381
523;1.4089846000006219;2380
524;1.410914899999625;2380
525;1.4145272000005207;2380
526;1.4185065000001487;2381
527;1.4224835999993957;2381
528;1.4254416999992827;2381
529;1.428431799999089;2381
530;1.431428899999446;2381
531;1.4344230000006064;2381
532;1.437432799999442;2381
533;1.4400098999994952;2382
534;1.4433370999995532;2382
535;1.446156300000439;2382
536;1.449166200000036;2382
537;1.4521598999999696;2382
538;1.4551322000006621;2382
539;1.4582179000008182;2382
540;1.4612237999990612;2383
541;1.4642318000005616;2383
542;1.4672742999991897;2383
543;1.4702510000006441;2383
544;1.4731496000003972;2384
545;1.4762494000005972;2384
546;1.4792538999990938;2383
547;1.4822619999995368;2384
548;1.4852468999997654;2384
549;1.4882273000002897;2385
550;1.4912514999996347;2385
551;1.494249100000161;2385
552;1.497244199999841;2385
553;1.5002507000008336;2385
554;1.5028798000003007;2386
555;1.5059053000004496;2386
556;1.509254200000214;2386
557;1.5122465999993437;2387
558;1.5152667999991536;2387
559;1.5182702000001882;2388
560;1.5212627999990218;2388
561;1.5242591999995057;2388
562;1.5272506999990583;2388
563;1.5302584000000934;2388
564;1.5331420999991678;2388
565;1.5362485000005108;2388
566;1.538898099999642;2389
567;1.5408272999993642;2389
568;1.5429425000002084;2389
569;1.5462447999998403;2390
570;1.5492071000007854;2390
571;1.551969399999507;2391
572;1.5543127000000823;2391
573;1.5574278000003687;2392
574;1.5604368000003888;2392
575;1.5634348999992653;2392
576;1.5664441000008082;2393
577;1.5705084999990504;2393
578;1.5745105999994848;2394
579;1.5785164999997505;2394
580;1.5819926000003761;2395
581;1.5842651999992086;2395
582;1.5874521000005188;2396
583;1.5915074000004097;2396
584;1.5955140000005485;2397
585;1.5984877999999298;2398
586;1.6025210000007064;2398
587;1.6060378999991372;2399
588;1.6094499999999243;2399
589;1.612382900000739;2400
590;1.6165099999998347;2401
591;1.6205463000005693;2402
592;1.6245543000004545;2402
593;1.6280351000004885;2403
594;1.6314846999994188;2403
595;1.6355038000001514;2404
596;1.6391127000006236;2404
597;1.6425242999994225;2405
598;1.6465475999993942;2406
599;1.6505151000001206;2406
600;1.6545487999992474;2407
601;1.657448199999635;2407
602;1.6609435999998823;2407
603;1.6629333999990195;2408
604;1.6652575000007346;2408
605;1.6681895999990957;2408
606;1.671123300000545;2409
607;1.6742307000004075;2409
608;1.6772669999991194;2410
609;1.6802755000007892;2411
610;1.683100899999772;2412
611;1.6862545999993017;2412
612;1.6888725999997405;2412
613;1.691903099999763;2413
614;1.6952581999994436;2413
615;1.6982590999996319;2414
616;1.701253999999608;2415
617;1.7042614000001777;2415
618;1.7079627000002802;2416
619;1.7110050999999658;2416
620;1.7130825999993249;2417
621;1.7160476999997627;2418
622;1.7191227999992407;2419
623;1.7221864000002824;2419
624;1.7251077000000805;2420
625;1.728111500000523;2421
626;1.7310407999993913;2422
627;1.73407860000043;2423
628;1.737061800000447;2423
629;1.740008900000248;2424
630;1.7430910000002768;2424
631;1.746083500000168;2425
632;1.7490883999998914;2426
633;1.752082299999529;2427
634;1.755072599999039;2427
635;1.7580904999995255;2428
636;1.7611085000007733;2429
637;1.764112799999566;2429
638;1.7671212999994168;2430
639;1.7701608999996097;2430
640;1.7730338999990636;2431
641;1.7761250999992626;2432
642;1.7791350000006787;2432
643;1.7820756000000983;2433
644;1.7851614999999583;2434
645;1.7879496999994444;2434
646;1.79102469999998;2434
647;1.7944728000002215;2435
648;1.7973103000003903;2436
649;1.8011965000005148;2437
650;1.8041979999998148;2438
651;1.806973000000653;2439
652;1.8101549000002706;2439
653;1.8131474999991042;2440
654;1.8161548000007315;2441
655;1.8192424999997456;2442
656;1.8222124000003532;2442
657;1.8251194999993459;2443
658;1.8281310999991547;2443
659;1.8311312000005273;2444
660;1.8340508000001137;2445
661;1.8370876000008138;2445
662;1.8399821999992128;2446
663;1.8431667000004381;2447
664;1.8461389000003692;2447
665;1.8491231999996671;2448
666;1.8520619999999326;2449
667;1.8550037999993947;2449
668;1.8579327999996167;2450
669;1.8612396999997145;2450
670;1.864235600000029;2450
671;1.867346400000315;2451
672;1.8702849999990576;2452
673;1.8728699000002962;2452
674;1.8748252999994293;2452
675;1.876939499999935;2453
676;1.8789417999996658;2453
677;1.880923000000621;2454
678;1.883925399999498;2454
679;1.886460600000646;2454
680;1.8901905999991868;2455
681;1.8945528999993257;2455
682;1.8985427999996318;2456
683;1.9025438000007853;2457
684;1.9058526000007987;2457
685;1.9088732000000164;2458
686;1.9119181000005483;2458
687;1.9139300999995612;2459
688;1.9159325000000536;2459
689;1.9179313000004186;2460
690;1.919948500000828;2460
691;1.921880500000043;2460
692;1.9241111999999703;2461
693;1.92590410000048;2461
694;1.928946399999404;2461
695;1.930944100000488;2461
696;1.932914900000469;2462
697;1.9349074000001565;2462
698;1.9379778000002261;2462
699;1.9398065999994287;2463
700;1.941917399999511;2462
701;1.9438981000002968;2462
702;1.9459265999994386;2463
703;1.9479346000007354;2463
704;1.9499092000005476;2463
705;1.9519213999992644;2463
706;1.953940400000647;2463
707;1.9571180000002641;2463
708;1.9599901999990834;2464
709;1.961975000000166;2464
710;1.9649912000004406;2464
711;1.9669737000003806;2464
712;1.968999900000199;2464
713;1.9711525999991864;2465
714;1.9740416999993613;2465
715;1.9759513000008155;2465
716;1.9799818999999843;2466
