;time;amplitude
0;0.0055245000003196765;2585
1;0.009898899999825517;2583
2;0.015053099999931874;2582
3;0.020478999998886138;2580
4;0.025459799999225652;2579
5;0.030504399999699672;2579
6;0.035468299998683506;2577
7;0.04035399999884248;2575
8;0.04542380000020785;2573
9;0.050442300000213436;2571
10;0.055526299998746254;2569
11;0.06033879999995406;2567
12;0.0646164999998291;2565
13;0.0692758999994112;2564
14;0.0736650999988342;2562
15;0.07808300000033341;2560
16;0.08157559999926889;2558
17;0.08626729999923555;2557
18;0.09129089999987627;2554
19;0.0962149999995745;2552
20;0.10128699999950186;2549
21;0.10463030000028084;2547
22;0.10926669999935257;2546
23;0.11415130000023055;2543
24;0.11866509999890695;2542
25;0.12299179999899934;2540
26;0.12703529999998864;2538
27;0.13048890000027313;2536
28;0.13388730000042415;2535
29;0.13812770000004093;2533
30;0.1431193999997049;2530
31;0.14754290000018955;2527
32;0.15217759999904956;2525
33;0.15715909999926225;2522
34;0.16211139999904844;2519
35;0.16541249999863794;2516
36;0.16835269999864977;2515
37;0.17143690000011702;2513
38;0.17489649999879475;2512
39;0.17890869999973802;2510
40;0.18257019999873592;2508
41;0.18692989999908605;2506
42;0.19088129999909142;2504
43;0.19486829999914335;2502
44;0.19843539999965287;2500
45;0.20285639999929117;2498
46;0.20684319999963918;2496
47;0.21086619999914546;2494
48;0.21437409999998636;2492
49;0.21783189999950991;2491
50;0.2218353999996907;2490
51;0.2258111999999528;2488
52;0.22979339999983495;2486
53;0.23244659999909345;2485
54;0.23575239999991027;2484
55;0.2397272999987763;2482
56;0.24375709999912942;2480
57;0.2473549999995157;2477
58;0.25048830000014277;2476
59;0.25357939999958035;2474
60;0.2566062999994756;2472
61;0.26078099999904225;2471
62;0.2643834999998944;2468
63;0.2675443999996787;2467
64;0.27052349999939906;2465
65;0.27350639999895066;2463
66;0.2765168999994785;2462
67;0.2802835000002233;2460
68;0.28350979999959236;2458
69;0.2863586999992549;2456
70;0.2895024999997986;2455
71;0.29251279999880353;2453
72;0.2964745999997831;2451
73;0.29954600000019127;2450
74;0.30245279999871855;2448
75;0.30572620000020834;2446
76;0.3087849000003189;2445
77;0.3127898999991885;2443
78;0.31650619999891205;2441
79;0.32064059999902383;2439
80;0.3246562000003905;2438
81;0.32866199999989476;2436
82;0.3313410999999178;2434
83;0.33480260000033013;2433
84;0.338818899999751;2431
85;0.34281539999938104;2429
86;0.34641849999934493;2427
87;0.35037170000032347;2425
88;0.35480920000009064;2423
89;0.35880399999950896;2420
90;0.36238760000014736;2418
91;0.36578349999945203;2417
92;0.36981489999925543;2415
93;0.3738162999998167;2412
94;0.37767059999896446;2410
95;0.38138900000012654;2408
96;0.384552800000165;2406
97;0.38776270000016666;2404
98;0.39184989999921527;2401
99;0.3958413999989716;2398
100;0.39860549999866635;2396
101;0.4027893000002223;2394
102;0.40639269999883254;2392
103;0.4092748000002757;2390
104;0.4123046999993676;2388
105;0.41521319999992556;2386
106;0.4186804000000848;2385
107;0.4227069999997184;2383
108;0.4268085000003339;2381
109;0.43038589999923715;2379
110;0.4333246999995026;2377
111;0.43652469999869936;2375
112;0.4393839999993361;2374
113;0.44224079999912647;2372
114;0.4455968000002031;2370
115;0.44871599999896716;2369
116;0.4526831000002858;2367
117;0.45653979999951844;2365
118;0.45960439999907976;2363
119;0.46366419999867503;2362
120;0.4677835000002233;2360
121;0.4700667999986763;2358
122;0.4737902999986545;2357
123;0.4764887000001181;2354
124;0.4793219000002864;2353
125;0.4823873999994248;2351
126;0.485246799999004;2350
127;0.4881588999996893;2348
128;0.49133009999968635;2347
129;0.4944173999992927;2345
130;0.49720129999877827;2344
131;0.5005901999993512;2342
132;0.5037052999996376;2340
133;0.5076391000002332;2339
134;0.5107580000003509;2337
135;0.5142638999986957;2336
136;0.5176192999988416;2334
137;0.5217343999993318;2333
138;0.5246905000003608;2331
139;0.5287845999991987;2329
140;0.5311605999995663;2328
141;0.5346435999999812;2326
142;0.5374358999997639;2325
143;0.5403312999987975;2323
144;0.543147799999133;2322
145;0.5462401999993745;2321
146;0.548224799998934;2320
147;0.5501745999990817;2319
148;0.5532734999997047;2318
149;0.5561452000001736;2316
150;0.5593718000000081;2315
151;0.5623474000003625;2313
152;0.5640634999999747;2312
153;0.5672680999996373;2311
154;0.5700737999995908;2310
155;0.5732881000003545;2309
156;0.5764994000001025;2308
157;0.5793517000001884;2306
158;0.5820910999991611;2304
159;0.5853594000000157;2303
160;0.5883567999990191;2301
161;0.5913466999991215;2300
162;0.5943537999992259;2299
163;0.597128999999768;2298
164;0.5994534999990719;2297
165;0.6023151999997935;2295
166;0.6052629999994679;2294
167;0.6083514999991166;2292
168;0.6110646999986784;2291
169;0.613247199999023;2290
170;0.6153321000001597;2290
171;0.6184223999989626;2289
172;0.6213110999997298;2287
173;0.6240620999997191;2287
174;0.626472099998864;2286
175;0.6293009000000893;2285
176;0.63238629999978;2284
177;0.6353600000002189;2282
178;0.6381303999987722;2281
179;0.6404669000003196;2280
180;0.643192800000179;2279
181;0.6462035000004107;2278
182;0.6493626999999833;2278
183;0.6521388000001025;2277
184;0.6542085999990377;2276
185;0.6562233000004198;2275
186;0.6580374999994092;2275
187;0.660121099999742;2274
188;0.6620118999999249;2273
189;0.6641456999986985;2273
190;0.6660479000001942;2272
191;0.6692091000004439;2271
192;0.6721407999993971;2270
193;0.6752189999988332;2269
194;0.677240899998651;2268
195;0.680152699998871;2268
196;0.6820575000001554;2267
197;0.6841748999995616;2266
198;0.6861148999996658;2265
199;0.6882515999986936;2265
200;0.6910750999995798;2264
201;0.6932450000003882;2263
202;0.6960731999988639;2263
203;0.6982158999999228;2261
204;0.701738399999158;2261
205;0.705824599999687;2260
206;0.70978230000037;2259
207;0.7134623999991163;2257
208;0.7165691999998671;2257
209;0.7197077999990142;2255
210;0.7235480999988795;2254
211;0.7267203999999765;2253
212;0.7302597999987483;2252
213;0.7338296999987506;2251
214;0.7377106999992975;2250
215;0.7417869000000792;2249
216;0.7452969999994821;2248
217;0.7483274999995047;2247
218;0.7517453999989812;2247
219;0.7557331999996677;2246
220;0.759736599999087;2245
221;0.7621116999998776;2244
222;0.7655945999995311;2243
223;0.7685646999998426;2243
224;0.7713817000003473;2242
225;0.7741975999997521;2241
226;0.7772009999989677;2241
227;0.7802527000003465;2240
228;0.7834822999993776;2240
229;0.7864766000002419;2239
230;0.789467099999456;2239
231;0.7924996999990981;2238
232;0.7954911999986507;2238
233;0.7982231999994838;2237
234;0.8014447999994445;2236
235;0.8044912999994267;2236
236;0.8072787999990396;2236
237;0.810480699999971;2235
238;0.8134505999987596;2234
239;0.8163346000001184;2234
240;0.819198499999402;2234
241;0.8222181999990426;2233
242;0.8251965999988897;2233
243;0.8282185999996727;2233
244;0.8313629000003857;2233
245;0.8344665999993595;2233
246;0.8374771999988297;2232
247;0.8402846999997564;2232
248;0.8433734999998705;2231
249;0.8463259999989532;2231
250;0.8493748999990203;2231
251;0.8523788999991666;2230
252;0.8553830000000744;2230
253;0.8583634999995411;2229
254;0.8613712999995187;2229
255;0.8643398000003799;2228
256;0.8673612999991747;2228
257;0.8703621000004205;2228
258;0.8734007999992173;2228
259;0.8763921999998274;2228
260;0.8795465999992302;2227
261;0.8822024000000965;2228
262;0.8852802999990672;2228
263;0.8884376999994856;2228
264;0.8914296999992075;2228
265;0.8942631999998412;2227
266;0.897120100000393;2227
267;0.9004260999990947;2227
268;0.9034396999995806;2227
269;0.9064266999994288;2227
270;0.9094224000000395;2227
271;0.9124221000001853;2228
272;0.9154287999990629;2228
273;0.918436500000098;2228
274;0.9214226999993116;2228
275;0.9244299999991199;2228
276;0.927422499999011;2229
277;0.9300954999998794;2229
278;0.9334330999990925;2229
279;0.936436699999831;2230
280;0.9394236999996792;2230
281;0.9424237999992329;2231
282;0.9454243999989558;2231
283;0.9484323999986373;2231
284;0.9514541999997164;2231
285;0.9544366999998601;2231
286;0.957249299999603;2232
287;0.960432399999263;2232
288;0.9633133999996062;2233
289;0.9664367999994283;2233
290;0.9694330999991507;2234
291;0.9722259999998641;2234
292;0.9754345999990619;2234
293;0.9784502999991673;2235
294;0.9814363999994384;2235
295;0.9844321999989916;2235
296;0.9874337000001105;2235
297;0.9901398000001791;2236
298;0.9934290000001056;2236
299;0.996431699999448;2237
300;0.9994399999995949;2237
301;1.0024276999993162;2238
302;1.005434200000309;2238
303;1.0084267999991425;2239
304;1.011432799999966;2239
305;1.0142952999995032;2240
306;1.0174317999990308;2241
307;1.0202448000000004;2241
308;1.0234368999990693;2241
309;1.0264408999992156;2242
310;1.0294336999995721;2242
311;1.0324285999995482;2242
312;1.0352786000003107;2243
313;1.038135799999509;2243
314;1.0412171999996644;2244
315;1.0448710999989999;2245
316;1.048606700000164;2245
317;1.0512343999998848;2246
318;1.054399900000135;2247
319;1.057404299999689;2247
320;1.0604249999996682;2248
321;1.0634018999990076;2248
322;1.0663824999992357;2249
323;1.0694354999995994;2249
324;1.0724417000001267;2250
325;1.075431600000229;2251
326;1.0784325000004173;2251
327;1.08144429999993;2252
328;1.084434099999271;2252
329;1.0874385999995866;2253
330;1.0904308999997738;2254
331;1.0934435999988636;2255
332;1.0963599999995495;2255
333;1.0990449000000808;2256
334;1.1010816999987583;2257
335;1.1049468999990495;2257
336;1.108664499999577;2258
337;1.112629699999161;2259
338;1.1164387999997416;2260
339;1.1193827999995847;2261
340;1.122422700000243;2262
341;1.1254313999997976;2263
342;1.1284264999994775;2264
343;1.1314349000003858;2265
344;1.1344362999989244;2266
345;1.137435099999493;2267
346;1.1404309999998077;2268
347;1.1434389999994892;2269
348;1.1463824000002205;2270
349;1.1494387000002462;2271
350;1.1524276999989524;2272
351;1.1554306999987602;2273
352;1.158433900000091;2274
353;1.160997299999508;2274
354;1.1630738000003475;2275
355;1.1651982000003045;2276
356;1.1683840999994572;2277
357;1.1713849999996455;2278
358;1.1744550000003073;2279
359;1.1774397999997746;2281
360;1.1801025000004302;2281
361;1.183264600000257;2283
362;1.186436699999831;2284
363;1.1894419999989623;2285
364;1.1922952999993868;2286
365;1.1941999999999098;2286
366;1.1973670999996102;2287
367;1.2007710999987466;2289
368;1.203371599998718;2290
369;1.2064190000000963;2291
370;1.2092488999987836;2292
371;1.2129883999987214;2293
372;1.216956599999321;2294
373;1.2206354999998439;2296
374;1.2242969999988418;2297
375;1.2274257999997644;2298
376;1.2301114999991114;2300
377;1.233435099999042;2301
378;1.2364314999995258;2303
379;1.2393214999992779;2304
380;1.2424301999999443;2306
381;1.2454314999995404;2307
382;1.2484416999996029;2308
383;1.2514410000003409;2310
384;1.2544421999991755;2311
385;1.257308500000363;2312
386;1.2604405000001861;2314
387;1.263260800000353;2315
388;1.2651999999998225;2316
389;1.2681713999991189;2317
390;1.2713895999986562;2319
391;1.2743845999993937;2320
392;1.2774245999989944;2321
393;1.280061100000239;2323
394;1.2833171999991464;2324
395;1.2863676999986637;2326
396;1.2893067999993946;2328
397;1.2925525999999081;2329
398;1.2966159999996307;2331
399;1.3010967999998684;2333
400;1.3047840999988694;2335
401;1.3091657999993913;2337
402;1.3127867999992304;2339
403;1.3170494999994844;2340
404;1.3220456999988528;2342
405;1.326076600000306;2344
406;1.3304064999992988;2346
407;1.3337737000001653;2348
408;1.337820599999759;2350
409;1.3417994999999792;2352
410;1.3458424000000377;2354
411;1.3498068999997486;2355
412;1.3538095000003523;2357
413;1.3578015999992203;2359
414;1.3618525999991107;2361
415;1.3657784999995783;2363
416;1.3698153999994247;2365
417;1.3738021999997727;2367
418;1.3775640999992902;2369
419;1.3803212000002532;2371
420;1.3837555999998585;2372
421;1.3878206999997929;2374
422;1.3918175999988307;2377
423;1.395815899999434;2379
424;1.3987410999998247;2380
425;1.40281479999976;2382
426;1.4068029999998544;2384
427;1.4108192999992752;2386
428;1.4143320999992284;2389
429;1.4188400999992155;2391
430;1.422815799998716;2394
431;1.4267989999989368;2396
432;1.4304099999990285;2398
433;1.4347600000000966;2400
434;1.4388457999993989;2402
435;1.44239430000016;2405
436;1.446882000000187;2406
437;1.450809099998878;2409
438;1.454807099999016;2411
439;1.458364199999778;2413
440;1.4628458999995928;2415
441;1.4657434999990073;2416
442;1.4698451999993267;2419
443;1.4733058999991044;2421
444;1.4762670999989496;2422
445;1.4792648999991798;2424
446;1.4822394000002532;2425
447;1.4852708999987954;2427
448;1.488387600000351;2428
449;1.4915787999998429;2429
450;1.4958704999990005;2431
451;1.4985834999988583;2433
452;1.5016971999993984;2434
453;1.5057419000004302;2436
454;1.5097752999990917;2439
455;1.5135183999991568;2440
456;1.5166934999997466;2443
457;1.5207687999991322;2444
458;1.5247760999991442;2446
459;1.5287650999998732;2449
460;1.5316774000002624;2451
461;1.5356758999987505;2453
462;1.5397730999993655;2455
463;1.5437738000000536;2457
464;1.547308699999121;2459
465;1.5505789999988338;2462
466;1.5537311999996746;2463
467;1.5577739000000292;2465
468;1.5617736999993213;2468
469;1.5658555999998498;2470
470;1.5697213999992528;2473
471;1.5737763999986782;2475
472;1.57778209999924;2477
473;1.581719099998736;2479
474;1.5857669999986683;2481
475;1.5897740999989765;2483
476;1.593786600000385;2486
477;1.5972939000002953;2488
478;1.6007093999996869;2490
479;1.6047734999992826;2492
480;1.608764799999335;2494
481;1.6127894000001106;2496
482;1.615732599999319;2498
483;1.6197429999992892;2499
484;1.62377430000015;2501
485;1.6277651000000333;2503
486;1.6302562999990187;2505
487;1.6337198999990505;2507
488;1.6377672999988135;2508
489;1.6417733999987831;2510
490;1.6456766999999672;2512
491;1.6487361999988934;2514
492;1.6527761999986978;2515
493;1.656771399999343;2517
494;1.660474999998769;2519
495;1.663440599999376;2521
496;1.6677703999994264;2522
497;1.6717726999995648;2524
498;1.6758264000000054;2526
499;1.6781610999987606;2528
500;1.6817099999989296;2529
501;1.685779100000218;2531
502;1.6897697999993397;2533
503;1.6937829999988026;2536
504;1.6972957999987557;2537
505;1.7007155999999668;2540
506;1.7047743999992235;2541
507;1.7086870000002818;2543
508;1.7127677999997104;2545
509;1.7157291999992594;2546
510;1.7197802999999112;2548
511;1.7234394999995857;2550
512;1.7277666999998473;2552
513;1.7317114999987098;2554
514;1.7357678999997006;2556
515;1.7392909999998665;2558
516;1.7421445999989373;2559
517;1.7441533000001073;2560
518;1.7460787999989407;2561
519;1.7481028999991395;2562
520;1.7500987999992503;2563
521;1.7521414999991975;2564
522;1.7540977999997267;2565
523;1.756066699999792;2566
524;1.7581654999994498;2567
525;1.7601484999995591;2568
526;1.7621239999989484;2569
527;1.7644136999988405;2570
528;1.7674209999986488;2570
529;1.7700528999994276;2572
530;1.7724182999991172;2572
531;1.7754382000002806;2573
532;1.7784418999999616;2575
533;1.7814472999998543;2576
534;1.7842326999998477;2577
535;1.7871821999997337;2578
536;1.790463399998771;2579
537;1.7934597999992548;2580
538;1.796425900000031;2581
539;1.799284599999737;2582
540;1.8022221999999601;2583
541;1.8053667999993195;2584
542;1.808253600000171;2585
543;1.8112758999996004;2587
544;1.8142668999989837;2588
545;1.8171590999991167;2588
546;1.8203347999988182;2589
547;1.8233268999993015;2590
548;1.8263265999994474;2591
549;1.8293630999996822;2592
550;1.832503399999041;2593
551;1.835528699999486;2594
552;1.8383450000001176;2595
553;1.8412895999990724;2596
554;1.8442963999987114;2597
555;1.8470903999987058;2598
556;1.8502766999990854;2598
557;1.8538895999990928;2600
558;1.8577222999992955;2601
559;1.8616521999992983;2602
560;1.8657788999989862;2603
561;1.8697343999992881;2605
562;1.8737597999988793;2606
563;1.8772568999993382;2608
564;1.880199299999731;2608
565;1.8834422999989329;2609
566;1.8864788999999291;2610
567;1.8894779999991442;2611
568;1.8924786999996286;2612
569;1.8955074999994395;2613
570;1.8985087999990355;2614
571;1.9015091999990545;2615
572;1.904533699998865;2615
573;1.9074911999996402;2616
574;1.911371299998791;2616
575;1.91427560000011;2617
576;1.9172741999991558;2617
577;1.9208717000001343;2618
578;1.9245879999998579;2619
579;1.9287578000003123;2619
580;1.931568399999378;2619
581;1.9357689999997092;2620
582;1.9398382999988826;2621
583;1.9437467999996443;2622
584;1.947277799999938;2622
585;1.9506941999989067;2623
586;1.9545466999989003;2624
587;1.9574604999997973;2624
588;1.9604631000001973;2625
589;1.9631943999993382;2625
590;1.966491399998631;2626
591;1.9694851999993261;2626
592;1.9724573999992572;2626
593;1.9755054999986896;2627
594;1.9784890999999334;2627
595;1.9814981999988959;2628
596;1.984498199999507;2628
597;1.9871120999996492;2628
598;1.9904991000003065;2629
599;1.9934857999996893;2630
600;1.9964908000001742;2630
601;1.9993341999997938;2630
602;2.0024814999997034;2630
603;2.005472999999256;2630
604;2.0083890999994765;2631
605;2.0114032000001316;2631
606;2.0144760999992286;2631
607;2.0174857000001793;2631
608;2.0213450999999623;2632
609;2.0244869999987714;2632
610;2.027484000000186;2632
611;2.03012789999957;2632
612;2.033264699999563;2633
613;2.035704899999473;2633
614;2.0398585999992065;2633
615;2.0438341999997647;2633
616;2.0472142999988137;2633
617;2.050214799999594;2633
618;2.053297599999496;2633
619;2.0566170000001875;2633
620;2.0607875999994576;2634
621;2.064759699998831;2634
622;2.0692956000002596;2634
623;2.0742618999993283;2634
624;2.0793424000003142;2634
625;2.0842924999997194;2634
626;2.089306799998667;2634
627;2.0943023999989236;2634
628;2.098721000000296;2633
629;2.102521099999649;2633
630;2.105378299998847;2633
631;2.108309299999746;2633
632;2.11124910000035;2633
633;2.1143160999999964;2633
634;2.117224499999793;2632
635;2.1207170999987284;2632
636;2.124770599999465;2631
637;2.128343099999256;2631
638;2.131718599999658;2631
639;2.135772100000395;2631
640;2.139761599999474;2631
641;2.1437250999988464;2630
642;2.1461421999993036;2630
643;2.1497810000000754;2630
644;2.1537615999986883;2629
645;2.157757999999376;2628
646;2.161743700000443;2628
647;2.1657560000003286;2627
648;2.169754099999409;2627
649;2.1737597999999707;2627
650;2.176547799999753;2626
651;2.17956520000007;2625
652;2.182465500000035;2625
653;2.1852402000004076;2624
654;2.1882743999995;2624
655;2.1912993999994796;2623
656;2.1942349999990256;2622
657;2.1964341000002605;2622
658;2.1992755999999645;2622
659;2.202263299999686;2621
660;2.205882500000371;2620
661;2.208690600000409;2619
662;2.2126104999988456;2619
663;2.21586329999991;2618
664;2.2197089000001142;2617
665;2.222070599998915;2616
666;2.224149399999078;2616
667;2.226147100000162;2616
668;2.2284600000002683;2615
669;2.231335200000103;2615
670;2.234093099999882;2614
671;2.2372873999993317;2614
672;2.2402963999993517;2613
673;2.243313599999965;2612
674;2.2464741000003414;2611
675;2.249736399999165;2611
676;2.253857699999571;2609
677;2.2576589999989665;2608
678;2.2606760999988182;2608
679;2.2632311999986996;2607
680;2.266352499998902;2607
681;2.269171500000084;2606
682;2.2723382000003767;2605
683;2.275468300000284;2604
684;2.278298699999141;2603
685;2.2815506999995705;2602
686;2.2843694999992294;2602
687;2.287387000000308;2601
688;2.2903083999990486;2601
689;2.293310199998814;2600
690;2.296432499999355;2599
691;2.299377800000002;2598
692;2.3021200000002864;2597
693;2.305374199999278;2596
694;2.308277799998905;2596
695;2.311309999999139;2594
696;2.3141371000001527;2594
697;2.3178615999986505;2593
698;2.3218225999989954;2592
699;2.3256881999986945;2591
700;2.3285954000002675;2590
701;2.331264700000247;2589
702;2.3345761000000493;2588
703;2.337226499999815;2587
704;2.3392524999999296;2587
705;2.3422331000001577;2586
706;2.344065999999657;2586
707;2.347051400000055;2585
708;2.3491510999992897;2585
709;2.3511037999996915;2584
710;2.353154000000359;2583
711;2.3551336000000447;2583
712;2.3582989999995334;2582
713;2.3611320999989402;2580
714;2.3640758999990794;2580
715;2.3663681999987602;2579
716;2.3693303000000014;2578
717;2.372161799999958;2576
718;2.374146299998756;2575
