;time;amplitude
0;0.002936799999588402;2431
1;0.006967799999983981;2432
2;0.009979399999792804;2432
3;0.01291529999980412;2432
4;0.01592749999872467;2433
5;0.018895100000008824;2432
6;0.0222061999993457;2433
7;0.02643779999925755;2434
8;0.03027019999899494;2434
9;0.03399329999956535;2434
10;0.036891399999149144;2435
11;0.04028680000010354;2435
12;0.043307599999025115;2435
13;0.047302099999797065;2436
14;0.05086739999933343;2436
15;0.05390099999931408;2436
16;0.056822999998985324;2436
17;0.05995749999965483;2436
18;0.06338879999930214;2436
19;0.06695159999981115;2436
20;0.06988009999986389;2437
21;0.07317399999919871;2437
22;0.07757279999896127;2437
23;0.08106279999992694;2438
24;0.08399519999875338;2438
25;0.08742940000047383;2439
26;0.09129749999920023;2439
27;0.09508420000020124;2439
28;0.0984865999998874;2439
29;0.10198469999886584;2440
30;0.10490299999946728;2440
31;0.10827400000016496;2441
32;0.11227109999890672;2441
33;0.11630349999904865;2441
34;0.1189433999988978;2442
35;0.12276009999914095;2442
36;0.12617820000014035;2443
37;0.12921110000024782;2443
38;0.1333119999999326;2443
39;0.1358271999997669;2444
40;0.1388268999999127;2444
41;0.14213609999933396;2444
42;0.14515829999982088;2445
43;0.14815300000009302;2445
44;0.1506833999992523;2445
45;0.15371740000045975;2445
46;0.15689759999986563;2445
47;0.15996289999930013;2446
48;0.16387459999896237;2446
49;0.16787579999981972;2446
50;0.17075889999978244;2447
51;0.17415889999938372;2447
52;0.17718129999957455;2447
53;0.1801871999996365;2447
54;0.18331149999903573;2447
55;0.1860908999988169;2448
56;0.18916989999888756;2448
57;0.1920986000004632;2448
58;0.19480399999883957;2448
59;0.1979470999995101;2448
60;0.20076419999895734;2449
61;0.20265759999892907;2449
62;0.20612369999980729;2449
63;0.20894439999938186;2449
64;0.2119812999990245;2450
65;0.21496029999980237;2449
66;0.21894040000006498;2450
67;0.2219649999988178;2450
68;0.22505079999973532;2450
69;0.22779789999913191;2451
70;0.23105190000023867;2451
71;0.23514299999987998;2451
72;0.23805480000009993;2451
73;0.2411813999988226;2451
74;0.2441447999990487;2451
75;0.2471523000003799;2452
76;0.25000159999945026;2452
77;0.25286620000042603;2452
78;0.25588690000040515;2452
79;0.25888490000033926;2452
80;0.2619061999994301;2452
81;0.26493569999911415;2452
82;0.26673479999954;2453
83;0.2699250999994547;2453
84;0.27285399999891524;2453
85;0.275871099998767;2454
86;0.27888809999967634;2454
87;0.28189279999969585;2454
88;0.28471669999998994;2455
89;0.28673299999900337;2455
90;0.28886679999959597;2455
91;0.29185990000041784;2455
92;0.29487369999878865;2455
93;0.29785769999944023;2455
94;0.30084309999983816;2456
95;0.30390319999969506;2456
96;0.30689779999920574;2456
97;0.3099177000003692;2456
98;0.31291959999907704;2456
99;0.3158815999995568;2457
100;0.31886610000037763;2457
101;0.32185279999976046;2458
102;0.3248535999991873;2458
103;0.32786440000018047;2458
104;0.33085269999901357;2458
105;0.3349576000000525;2459
106;0.33794180000040797;2459
107;0.34088789999987057;2459
108;0.34394799999972747;2460
109;0.3470292999991216;2460
110;0.3497539999989385;2460
111;0.35291270000016084;2461
112;0.3560321999993903;2461
113;0.35896630000024743;2460
114;0.3619003999992856;2461
115;0.36503780000020924;2461
116;0.36802150000039546;2461
117;0.3709136999987095;2461
118;0.3740402000003087;2462
119;0.37697639999896637;2462
120;0.3800439999995433;2462
121;0.38304389999939303;2463
122;0.3859850999997434;2463
123;0.3889318999990792;2463
124;0.3920426000004227;2463
125;0.3949238000004698;2464
126;0.39803759999995236;2464
127;0.40089939999961643;2464
128;0.40389479999976174;2465
129;0.4070425999998406;2465
130;0.41003769999952056;2464
131;0.41289969999888854;2465
132;0.41604670000015176;2465
133;0.4188928000003216;2465
134;0.42204080000010435;2465
135;0.4249744999997347;2465
136;0.42788199999995413;2465
137;0.43093380000027537;2466
138;0.433739299998706;2466
139;0.43712889999915205;2466
140;0.44113040000047476;2466
141;0.4442252999997436;2467
142;0.44724109999879147;2467
143;0.4508375999994314;2467
144;0.4542736999992485;2467
145;0.4570411000004242;2468
146;0.46004849999917496;2468
147;0.4630446999999549;2468
148;0.4669401999999536;2468
149;0.4699014999987412;2468
150;0.47300170000016806;2468
151;0.47600669999883394;2468
152;0.47885839999980817;2468
153;0.48176149999926565;2469
154;0.4836623999999574;2469
155;0.4861356999990676;2469
156;0.4892688999989332;2470
157;0.4919473999998445;2469
158;0.49508739999873796;2470
159;0.4979475000000093;2470
160;0.5007711999987805;2470
161;0.5040023000001383;2470
162;0.5070173999993131;2470
163;0.509890199999063;2470
164;0.512647300000026;2470
165;0.5148164999991423;2470
166;0.5178298999999242;2470
167;0.5208697999987635;2470
168;0.52382469999975;2471
169;0.5274255000003905;2471
170;0.5312648999988596;2471
171;0.5352868999998464;2471
172;0.5392154000001028;2472
173;0.5431871999990108;2472
174;0.5472276999989845;2472
175;0.5512650000000576;2472
176;0.5552248000003601;2473
177;0.5592789000002085;2473
178;0.5633471999990434;2473
179;0.5668779999996332;2474
180;0.5702619000003324;2474
181;0.5741922999986855;2474
182;0.5772964999996475;2474
183;0.5810961999995925;2475
184;0.5853246999995463;2475
185;0.5892117999992479;2475
186;0.5933019999993121;2476
187;0.596100299999307;2476
188;0.5988605999991705;2476
189;0.6018076999989717;2476
190;0.6042914999998175;2476
191;0.6068237999988924;2476
192;0.6098882999995112;2476
193;0.6128833000002487;2476
194;0.6160271999997349;2476
195;0.6189514999987296;2477
196;0.621958599998834;2476
197;0.6250478999991174;2477
198;0.627992899999299;2477
199;0.6310247999990679;2477
200;0.633830200000375;2477
201;0.6368681000003562;2477
202;0.6398236000004545;2477
203;0.6427470999988145;2477
204;0.6460397999999259;2477
205;0.649963599998955;2478
206;0.6531931999998051;2478
207;0.656091099999685;2478
208;0.659057799999573;2478
209;0.6620607999993808;2478
210;0.6650623999994423;2479
211;0.6689417999987199;2479
212;0.6720337999995536;2479
213;0.6750465000004624;2479
214;0.6780234999987442;2479
215;0.681036199999653;2479
216;0.683786899999177;2480
217;0.6869890999987547;2480
218;0.6900387999994564;2480
219;0.6930417999992642;2480
220;0.6960344999988592;2480
221;0.6990766999988409;2480
222;0.7019932999992307;2480
223;0.7049898999994184;2480
224;0.7079648999988422;2480
225;0.7110539000004792;2480
226;0.7139011999988725;2481
227;0.7166870999990351;2481
228;0.7199413999987883;2481
229;0.7230287000002136;2480
230;0.7260384999990492;2480
231;0.7289400999998179;2480
232;0.7320194999992964;2480
233;0.7349993999996514;2480
234;0.7380262999995466;2480
235;0.7410483999992721;2480
236;0.7439677999991545;2480
237;0.7470219999995606;2481
238;0.7497050999991188;2481
239;0.7530245999987528;2480
240;0.7559031000000687;2480
241;0.7590182000003551;2480
242;0.7619673999997758;2481
243;0.7650190999993356;2481
244;0.7680330000002868;2481
245;0.7709181999998691;2481
246;0.7740230999988853;2481
247;0.7768787999993947;2481
248;0.7799768000004406;2481
249;0.7829455999999482;2481
250;0.785891100000299;2481
251;0.7888908000004449;2481
252;0.7917925999990985;2481
253;0.794880399998874;2481
254;0.7980191999995441;2481
255;0.8008558999990782;2481
256;0.8038954999992711;2481
257;0.806864799998948;2481
258;0.8098807999995188;2481
259;0.8129018999989057;2481
260;0.8158771999987948;2481
261;0.8190101000000141;2481
262;0.8220626999991509;2481
263;0.8250384000002668;2482
264;0.8280149000001984;2481
265;0.8310236999986955;2481
266;0.8338786999993317;2482
267;0.8370209999993676;2481
268;0.8400442000001931;2481
269;0.8430434999991121;2481
270;0.846014799999466;2482
271;0.849014299999908;2481
272;0.852021099999547;2481
273;0.8547496999999566;2482
274;0.8580428000004758;2482
275;0.8610195999990538;2482
276;0.8640161999992415;2482
277;0.8667225999997754;2483
278;0.869758599999841;2482
279;0.8730491999995138;2483
280;0.8760437999990245;2483
281;0.879041000000143;2483
282;0.8820280999989336;2483
283;0.8850447999993776;2483
284;0.8880374999989726;2483
285;0.8910208999986935;2483
286;0.8940298999987135;2483
287;0.8970147999989422;2483
288;0.899770099998932;2483
289;0.9027877999997145;2483
290;0.904749899998933;2483
291;0.9077194999990752;2483
292;0.9107812999991438;2482
293;0.913750899999286;2483
294;0.9168138000004546;2483
295;0.9196866000002046;2483
296;0.9217275999999401;2483
297;0.9237941999999748;2483
298;0.9257925000001705;2483
299;0.9277848000001541;2483
300;0.9307477999991534;2483
301;0.9326562999995076;2483
302;0.9347770000003948;2483
303;0.9367442000002484;2483
304;0.9386997000001429;2483
305;0.9406046000003698;2483
306;0.942576999999801;2483
307;0.9446871999989526;2483
308;0.9466836999999941;2483
309;0.9486471000000165;2482
310;0.9506703999995807;2483
311;0.9526386999987153;2482
312;0.954666300000099;2482
313;0.9566534999994474;2482
314;0.9586079999990034;2482
315;0.9607187999990856;2482
316;0.9627542999987782;2482
317;0.9646531999987928;2482
318;0.9667451000004803;2482
319;0.9687082000000373;2483
320;0.9706994999996823;2483
321;0.9737022999997862;2483
322;0.9756985999993049;2482
323;0.9776941999989504;2483
324;0.979729499998939;2483
325;0.9824647000004916;2483
326;0.9853399000003265;2483
327;0.9894093999992037;2483
328;0.9930752000000211;2483
329;0.9970338000002812;2483
330;0.9996283999989828;2483
331;1.0031269999999495;2483
332;1.00575949999984;2483
333;1.0090352999995957;2483
334;1.0119850999999471;2483
335;1.0154593999995996;2483
336;1.0188051999994059;2483
337;1.0219158999989304;2483
338;1.0247120000003633;2483
339;1.0279517999988457;2484
340;1.0309390000002168;2484
341;1.0337521000001288;2484
342;1.0356855999998515;2484
343;1.0375418000003265;2484
344;1.0399270999987493;2484
345;1.0428656000003684;2484
346;1.0458545999990747;2484
347;1.0488406999993458;2484
348;1.05170999999973;2484
349;1.0548978999995597;2484
350;1.0578807000001689;2484
351;1.0607813999995415;2484
352;1.0640328999998019;2484
353;1.0666311999993923;2484
354;1.068686599999637;2484
355;1.070663799999238;2484
356;1.072752500000206;2484
357;1.0758986000000732;2484
358;1.0788460999992822;2484
359;1.0818471999991743;2483
360;1.085031299999173;2483
361;1.0876454999997804;2483
362;1.0896486999990884;2483
363;1.0930584999987332;2482
364;1.0959524999998393;2483
365;1.0991728999997576;2483
366;1.1018136000002414;2483
367;1.1037145999998756;2483
368;1.1069236000003002;2483
369;1.110270799999853;2483
370;1.1131586999999854;2483
371;1.1163495999990118;2483
372;1.1186987999990379;2483
373;1.1206351999990147;2483
374;1.1229911999998876;2483
375;1.125822199999675;2483
376;1.1292065999987244;2483
377;1.1320345000003726;2483
378;1.1349983000000066;2483
379;1.1377438999988954;2483
380;1.1406709999992017;2483
381;1.1425868999995146;2483
382;1.1445764000000054;2483
383;1.146568500000285;2483
384;1.1485766999994667;2483
385;1.150746799999979;2483
386;1.1526427999997395;2483
387;1.154608200000439;2484
388;1.1577201999989484;2484
389;1.1596055999998498;2483
390;1.1616618999996717;2484
391;1.1637257999991562;2484
392;1.1657076999999845;2484
393;1.1689845999990212;2483
394;1.1719632000003912;2483
395;1.1746241999990161;2483
396;1.176624300000185;2483
397;1.1786228000000847;2483
398;1.1806218000001536;2483
399;1.1825972999995429;2483
400;1.1847777999992104;2484
401;1.1867413999989367;2483
402;1.188590399999157;2483
403;1.1907172999999602;2483
404;1.1927011999996466;2483
405;1.1957234000001336;2483
406;1.1987033000004885;2483
407;1.2006412999999156;2483
408;1.2026841999995668;2483
409;1.2046580999995058;2483
410;1.2077759000003425;2483
411;1.2107187999990856;2484
412;1.2126207999990584;2484
413;1.214737000000241;2483
414;1.2166713999995409;2483
415;1.2197323999989749;2483
416;1.2216850999993767;2483
417;1.2247081999994407;2483
418;1.226783299998715;2483
419;1.2286351999991894;2483
420;1.2305918999991263;2484
421;1.2326252000002569;2484
422;1.2348087999998825;2484
423;1.237649999999121;2483
424;1.2407351999991079;2484
425;1.2426971999993839;2484
426;1.244704200000342;2484
427;1.2467070999991847;2484
428;1.249553100000412;2484
429;1.2527329000004102;2483
430;1.2546635999988212;2483
431;1.257661300000109;2483
432;1.259669600000052;2483
433;1.2616774999987683;2483
434;1.2636937999996007;2483
435;1.265720399998827;2483
436;1.2687208999996074;2483
437;1.270688099999461;2484
438;1.2728903999995964;2484
439;1.2757444999988365;2483
440;1.2776892999991105;2483
441;1.2796990999995614;2483
442;1.2815883000002941;2484
443;1.283664000000499;2483
444;1.2866680999995879;2483
445;1.2886989999988145;2483
446;1.2917407999993884;2483
447;1.293637699998726;2483
448;1.2966397999989567;2483
449;1.298710699998992;2484
450;1.3009912999987137;2483
451;1.3036677000000054;2483
452;1.3059274999995978;2483
453;1.308727199999339;2483
454;1.311777599999914;2483
455;1.315123099999255;2483
456;1.3182053999989876;2483
457;1.320672599998943;2483
458;1.323885199999495;2483
459;1.3271378999997978;2483
460;1.330077099999471;2483
461;1.3330141999995249;2483
462;1.335747099999935;2483
463;1.3386336000003212;2483
464;1.3408552000000782;2483
465;1.3438547999994626;2483
466;1.3466845999992074;2483
467;1.3487217000001692;2483
468;1.35082489999877;2483
469;1.3535520999994333;2483
470;1.3556463000004442;2483
471;1.3589136999999027;2483
472;1.361799099999189;2483
473;1.3647634999997535;2483
474;1.3666408999997657;2483
475;1.3697824999999284;2483
476;1.372056000000157;2483
477;1.375066099999458;2483
478;1.3780085999987932;2483
479;1.380844100000104;2483
480;1.3836750999998912;2483
481;1.3866450999994413;2484
482;1.3889478000000963;2483
483;1.3917289000000892;2483
484;1.3951211999992665;2484
485;1.3981327999990754;2484
486;1.4010313999988284;2484
487;1.4036813999991864;2484
488;1.4067708000002312;2484
489;1.4087500999994518;2483
490;1.410744999999224;2483
491;1.412720199999967;2483
492;1.4146901000003709;2484
493;1.4166384999989532;2484
494;1.4196777999986807;2483
495;1.4220688999994309;2483
496;1.4247297999991133;2483
497;1.4266953999995167;2483
498;1.4286056000000826;2483
499;1.4309164999995119;2483
500;1.4337918999990507;2483
501;1.4358045999997557;2483
502;1.4376969000004465;2483
503;1.4397556999992958;2483
504;1.4417522999992798;2483
505;1.4446111999986897;2483
506;1.4467537999989872;2483
507;1.4487957999990613;2483
508;1.4517152999997052;2483
509;1.4535785999996733;2484
510;1.4558481000003667;2484
511;1.4589765000000625;2484
512;1.4621893000003183;2484
513;1.4650743999991391;2484
514;1.4678093000002264;2484
515;1.4711867999994865;2484
516;1.4741584000003058;2484
517;1.4768294999994396;2484
518;1.4798761999991257;2484
519;1.4828183999998146;2484
520;1.484644299998763;2484
521;1.4866672999996808;2485
522;1.4888295999990078;2485
523;1.492034999999305;2485
524;1.4949049999995623;2485
525;1.4978336000003765;2485
526;1.499570500000118;2485
527;1.501695999999356;2485
528;1.5047756999992998;2485
529;1.5068473999999696;2485
530;1.5086914000003162;2485
531;1.5117585999996663;2485
532;1.5149081999988994;2485
533;1.5179277999995975;2485
534;1.5208645000002434;2485
535;1.5238134999999602;2485
536;1.526846900000237;2485
537;1.5298781000001327;2485
538;1.532732899999246;2485
539;1.5359369999987393;2485
540;1.538952299999437;2485
541;1.5419222000000445;2484
542;1.5450536999996984;2484
543;1.547923099999025;2484
544;1.550729999999021;2485
545;1.553888399999778;2485
546;1.5568683000001329;2484
547;1.5598735999992641;2484
548;1.5628765000001295;2483
549;1.5667384999997012;2484
550;1.5699227000004612;2483
551;1.5726610000001529;2484
552;1.5748456999990594;2484
553;1.5766590000002907;2484
554;1.579652000000351;2484
555;1.5818562000004022;2483
556;1.5852147999994486;2483
557;1.589381499999945;2483
558;1.5948762999996688;2483
559;1.599392699999953;2483
560;1.6033824999994977;2482
561;1.607372700000269;2483
562;1.6110110999998142;2482
563;1.6142552999990585;2482
564;1.6171003999988898;2483
565;1.6214418999988993;2483
566;1.625481499999296;2482
567;1.6292271999991499;2483
568;1.6330443999995623;2483
569;1.636199200000192;2483
570;1.640259399999195;2483
571;1.643872900000133;2483
572;1.6468125999999756;2482
573;1.6499612999996316;2482
574;1.653247599999304;2482
575;1.6573864999991201;2483
576;1.6613276999996742;2483
577;1.6641896000000997;2483
578;1.668256900000415;2483
579;1.6723738000000594;2483
580;1.6758675999990373;2484
581;1.6791462999990472;2484
582;1.6830707999997685;2483
583;1.6858776999997644;2483
584;1.6890815999995539;2484
585;1.6929901000003156;2483
586;1.6957775999999285;2483
587;1.6992673000004288;2483
588;1.701828100000057;2483
589;1.7051211999987572;2483
590;1.7077862999994977;2483
591;1.711277099999279;2483
592;1.7154131999996025;2482
593;1.7178528000004007;2483
594;1.7211759999991045;2483
595;1.7239389999995183;2483
596;1.7271505999997316;2483
597;1.7301343999988603;2483
598;1.7330504000001383;2483
599;1.7359364999992977;2483
600;1.7389691999997012;2483
601;1.7419145000003482;2483
602;1.7449385999989317;2483
603;1.7477557999991404;2482
604;1.7508762999987084;2482
605;1.7538284000002022;2483
606;1.7568038999997952;2483
607;1.7597719000004872;2483
608;1.7617706000000908;2483
609;1.7651191000004474;2483
610;1.7682659999991301;2483
611;1.7711253999987093;2483
612;1.774000999999771;2483
613;1.7770277999989048;2483
614;1.7799236999999266;2483
615;1.7828392999999778;2483
616;1.7847531999996136;2483
617;1.7866305999996257;2484
618;1.7888001999999688;2484
619;1.791801299999861;2483
620;1.7947604000000865;2483
621;1.797722999999678;2483
622;1.7997537999999622;2483
623;1.8028254000000743;2483
624;1.8048129999988305;2483
625;1.8067291999996087;2483
626;1.809820700000273;2483
627;1.81180250000034;2483
628;1.8148223999996844;2483
629;1.8178315999994084;2483
630;1.820672800000466;2483
631;1.822762399999192;2483
632;1.8258671999992657;2483
633;1.8278021999994962;2483
634;1.8298359000000346;2483
635;1.8325886000002356;2483
636;1.834815999998682;2483
637;1.8368044999988342;2484
638;1.8396541999991314;2484
639;1.841737299999295;2484
640;1.8448286999991979;2484
641;1.8467555999995966;2484
642;1.8487066999987292;2484
643;1.8507358999995631;2484
644;1.8527255999997578;2484
645;1.8546561999992264;2484
646;1.8568152999996528;2484
647;1.8586658000003808;2484
648;1.8607761000002938;2484
649;1.8638283999989653;2484
650;1.8656684999987192;2484
651;1.8676814999998896;2484
652;1.869664300000295;2484
653;1.8716540000004898;2484
654;1.873625099999117;2484
655;1.8757691999999224;2484
656;1.8777516999998625;2484
657;1.8797464999988733;2484
658;1.881834499999968;2484
659;1.8846531999988656;2484
660;1.8868211999997584;2484
661;1.8898324000001594;2484
662;1.89291029999913;2484
663;1.8957186999996338;2483
664;1.8989146999992954;2484
665;1.9007402999995975;2483
666;1.9028885999996419;2483
667;1.9051103000001604;2483
668;1.9079020999997738;2483
669;1.910712599999897;2483
670;1.9139768000004551;2482
671;1.9166922000003979;2482
672;1.9197764000000461;2482
673;1.9229753999989043;2482
674;1.9256218999998964;2482
675;1.9283912999999302;2482
676;1.9322916999990412;2482
677;1.9348290999987512;2483
678;1.9377690000001166;2483
679;1.9409170999988419;2483
680;1.9437773999998171;2483
681;1.946904499998709;2483
682;1.9497099999989587;2483
683;1.9519517999997333;2483
684;1.9546594000003097;2483
685;1.9577573999995366;2483
686;1.9597383000000264;2483
687;1.9617460999998002;2483
688;1.9637361000004603;2483
689;1.966776100000061;2483
690;1.9698645999997098;2483
691;1.9731388999989576;2483
692;1.9761435000000347;2483
693;1.9787092999995366;2483
694;1.981903500000044;2483
695;1.9847835000000487;2483
696;1.986736299999393;2483
697;1.9899703999999474;2483
698;1.9929116000002978;2483
699;1.995648500000243;2483
700;1.9978277999998681;2484
701;2.001268699999855;2483
702;2.0036695999988297;2483
703;2.007038300000204;2484
704;2.0100302999999258;2483
705;2.0129845999999816;2483
706;2.0162467999998626;2483
707;2.020296299999245;2483
708;2.0232630999998946;2483
709;2.025783999999476;2484
710;2.0280165000003763;2484
711;2.031022400000438;2484
712;2.0339296000001923;2484
713;2.036781799999517;2484
714;2.0397818999990704;2484
715;2.0427906999993866;2483
716;2.045888799999375;2484
