;time;amplitude
0;0.005565800000113086;2075
1;0.009675899998910609;2089
2;0.013627799999085255;2100
3;0.018611299999975017;2115
4;0.02280830000017886;2128
5;0.02666759999920032;2139
6;0.03071300000010524;2151
7;0.03446989999974903;2162
8;0.03844240000034915;2174
9;0.04233819999899424;2184
10;0.045276799999555806;2195
11;0.048216499999398366;2203
12;0.05138950000036857;2212
13;0.05409999999938009;2222
14;0.05709059999935562;2230
15;0.06011469999975816;2240
16;0.06311319999986154;2248
17;0.06611849999899277;2257
18;0.06906539999909;2266
19;0.07203490000028978;2274
20;0.0750700999997207;2284
21;0.07816259999890462;2293
22;0.08116349999909289;2302
23;0.08409070000016072;2312
24;0.08720030000040424;2321
25;0.09009169999990263;2331
26;0.093209200000274;2339
27;0.096255000000383;2349
28;0.0992389999992156;2358
29;0.1020766999990883;2367
30;0.10532819999934873;2375
31;0.10809919999883277;2385
32;0.1110990999986825;2394
33;0.11409699999967415;2402
34;0.11704850000023725;2411
35;0.12029989999973623;2420
36;0.12328940000043076;2430
37;0.1263000999988435;2440
38;0.12906660000044212;2449
39;0.13107019999915792;2456
40;0.134000099998957;2464
41;0.13694219999888446;2474
42;0.13990980000016862;2481
43;0.14210699999966891;2490
44;0.14509449999968638;2497
45;0.14859249999972235;2506
46;0.15242649999891;2518
47;0.15544729999965057;2528
48;0.15840980000029958;2539
49;0.1612249999998312;2548
50;0.16422229999989213;2557
51;0.16727869999886025;2566
52;0.17021099999874423;2576
53;0.17322109999986424;2584
54;0.17623660000026575;2594
55;0.17925610000020242;2602
56;0.18206730000019888;2612
57;0.18410949999997683;2619
58;0.1871099999989383;2626
59;0.1900932999997167;2636
60;0.19306679999863263;2646
61;0.19611919999988459;2654
62;0.19921719999911147;2662
63;0.20203939999919385;2672
64;0.20543829999951413;2680
65;0.20839449999948556;2692
66;0.2113558999990346;2701
67;0.21390669999891543;2709
68;0.21591579999949317;2716
69;0.21788349999951606;2722
70;0.21996500000022934;2727
71;0.22183919999952195;2733
72;0.22379389999878185;2739
73;0.22587779999958002;2745
74;0.22786900000028254;2751
75;0.22989489999963553;2756
76;0.23193739999987883;2762
77;0.23493880000023637;2769
78;0.23727109999890672;2776
79;0.23993119999977353;2784
80;0.24295639999945706;2792
81;0.24491820000002917;2799
82;0.24692549999963376;2805
83;0.2489129999994475;2810
84;0.2509020999987115;2816
85;0.25291809999907855;2821
86;0.2559432999987621;2827
87;0.25785670000004757;2835
88;0.25999810000030266;2840
89;0.2619823999993969;2846
90;0.26399099999980535;2851
91;0.2659630999987712;2857
92;0.2680111999998189;2862
93;0.27000930000031076;2868
94;0.2720067999998719;2874
95;0.27398819999871193;2879
96;0.2770022999993671;2885
97;0.27900810000028287;2892
98;0.28100719999929424;2897
99;0.2829959999999119;2903
100;0.2849740000001475;2908
101;0.2879918999988149;2913
102;0.28995690000010654;2921
103;0.2934788999991724;2928
104;0.2959778999993432;2936
105;0.29959690000032424;2943
106;0.3030689999995957;2953
107;0.306478700000298;2963
108;0.3095754999994824;2970
109;0.3135960999989038;2978
110;0.3174511999986862;2989
111;0.32054409999909694;2998
112;0.32453829999940353;3006
113;0.32854330000009213;3016
114;0.3325764999990497;3025
115;0.33607109999866225;3035
116;0.3390347999993537;3043
117;0.3419520999996166;3049
118;0.34387869999955;3055
119;0.34600399999908404;3060
120;0.3478008999991289;3064
121;0.3499095999995916;3068
122;0.3520042000000103;3073
123;0.3538645999997243;3078
124;0.35590849999971397;3082
125;0.3590124000002106;3087
126;0.3608654999989085;3093
127;0.36291329999949085;3097
128;0.3649635000001581;3101
129;0.3668631999989884;3106
130;0.3688490999993519;3110
131;0.37198389999866777;3115
132;0.37388889999965613;3121
133;0.37581909999971685;3125
134;0.3778889999994135;3128
135;0.37996839999868826;3133
136;0.3819555999998556;3137
137;0.3839312999989488;3141
138;0.3859711999994033;3144
139;0.3889686000002257;3149
140;0.3919449999993958;3154
141;0.394927600000301;3160
142;0.39689980000002834;3166
143;0.3988978999987012;3169
144;0.4009465999988606;3173
145;0.4028703999993013;3176
146;0.40488600000026054;3180
147;0.4068814999991446;3183
148;0.40888950000044133;3187
149;0.4110227000001032;3191
150;0.4130169999989448;3194
151;0.4161724999994476;3198
152;0.41930409999986296;3203
153;0.42255389999991166;3209
154;0.426569199998994;3215
155;0.4305681999994704;3221
156;0.4345372999996471;3227
157;0.4374828999989404;3233
158;0.4415380999998888;3238
159;0.44553949999863107;3244
160;0.4495606000000407;3250
161;0.45247139999992214;3254
162;0.4554884999997739;3259
163;0.45834949999880337;3263
164;0.4613086999997904;3267
165;0.4643157999998948;3271
166;0.46733229999881587;3274
167;0.47023839999928896;3277
168;0.4732551999986754;3282
169;0.4762559999999212;3285
170;0.4792576999989251;3289
171;0.4818627999993623;3292
172;0.4852886999997281;3295
173;0.4882653000004211;3298
174;0.4912899999999354;3301
175;0.4942883999992773;3304
176;0.49729739999929734;3307
177;0.5002939999994851;3310
178;0.5032683999997971;3312
179;0.5063011999991431;3315
180;0.5092930999999226;3317
181;0.5122966999988421;3320
182;0.5153001999988192;3322
183;0.5182723999987502;3324
184;0.5212983999990684;3326
185;0.5242521999989549;3328
186;0.5272979999990639;3331
187;0.5300255000001926;3333
188;0.5332753999991837;3334
189;0.5359662999999273;3336
190;0.5392718999992212;3337
191;0.5421561000002839;3339
192;0.5449138000003586;3340
193;0.5480134999997972;3341
194;0.5499565999998595;3342
195;0.5529967000002216;3343
196;0.5562732999987929;3344
197;0.559280999999828;3345
198;0.5622714999990421;3346
199;0.5651216999995086;3347
200;0.5680144999987533;3348
201;0.570128699999259;3349
202;0.5732360999991215;3349
203;0.5762317999997322;3350
204;0.5790159999996831;3350
205;0.582226599999558;3350
206;0.584893799999918;3350
207;0.586991999998645;3350
208;0.5902463000002172;3350
209;0.5931621999989147;3350
210;0.5962459999991552;3350
211;0.5992669999995996;3349
212;0.6020408999993379;3349
213;0.604921000000104;3348
214;0.6069408000003023;3348
215;0.6089675000002899;3347
216;0.6109290999993391;3347
217;0.6130371999988711;3346
218;0.6150534999997035;3346
219;0.6185310999990179;3345
220;0.6215099000000919;3344
221;0.6254818999987037;3342
222;0.6283060999994632;3341
223;0.6313063999987207;3340
224;0.6341474999990169;3338
225;0.637199499999042;3337
226;0.6401394999993499;3335
227;0.643135500000426;3334
228;0.6461413999986689;3332
229;0.6492001999995409;3330
230;0.6519296999995277;3328
231;0.6541670999995404;3326
232;0.6571946000003663;3324
233;0.6601699000002554;3322
234;0.6631791999989218;3320
235;0.6661697999988974;3318
236;0.6689138999990973;3315
237;0.6721942999993189;3313
238;0.6751974999988306;3310
239;0.6781940999990184;3307
240;0.6811969999998837;3304
241;0.6839418999988993;3302
242;0.6858118999989529;3300
243;0.6879730000000563;3297
244;0.689974799999618;3295
245;0.691825300000346;3294
246;0.693892399998731;3291
247;0.6959628000004159;3289
248;0.6979952000001504;3287
249;0.6998465999986365;3285
250;0.7018900000002759;3282
251;0.7038957999993727;3280
252;0.7058254000003217;3278
253;0.7079127999986667;3276
254;0.7099099999995815;3273
255;0.7118500999986281;3271
256;0.714063299999907;3268
257;0.716877699998804;3265
258;0.7188276999986556;3262
259;0.7208262999993167;3260
260;0.7228001999992557;3257
261;0.7248019999988173;3255
262;0.7267787999990105;3252
263;0.728839199999129;3249
264;0.7309581999998045;3247
265;0.7329286000003776;3243
266;0.7358996999992087;3240
267;0.7379924999986542;3236
268;0.7409986999991816;3233
269;0.742993199999546;3228
270;0.7449576999988494;3225
271;0.7468909999988682;3222
272;0.7490158999989944;3219
273;0.7510158999994019;3216
274;0.7530301999995572;3213
275;0.7560106999990239;3209
276;0.7580082999993465;3204
277;0.7599974000004295;3201
278;0.7620338999986416;3198
279;0.7649722999994992;3194
280;0.7670459999990271;3190
281;0.7700084999996761;3186
282;0.7719280999990588;3181
283;0.7738623999994161;3177
284;0.7758268999987195;3174
285;0.7778512999993836;3171
286;0.7798385999994935;3166
287;0.7818743999996514;3163
288;0.7838532999994641;3159
289;0.7859147999988636;3155
290;0.7881412999995518;3150
291;0.7910990000000311;3146
292;0.793971999999485;3139
293;0.7971438999993552;3135
294;0.8001891999992949;3128
295;0.803105199998754;3122
296;0.8061873999995441;3115
297;0.8092070000002423;3110
298;0.8120605999993131;3104
299;0.8139916000000085;3098
300;0.8171179999990272;3094
301;0.8200884999987466;3088
302;0.8230907999986812;3082
303;0.8249249999989843;3075
304;0.8269721999986359;3071
305;0.8301750999999058;3066
306;0.8331954999994196;3059
307;0.8358592999993562;3052
308;0.8391761999992013;3046
309;0.8419035999995685;3038
310;0.8438891999994667;3033
311;0.845984599998701;3028
312;0.8480812999987393;3023
313;0.8501359999991109;3019
314;0.8528685999990557;3014
315;0.8549795999988419;3008
316;0.8571438999988459;3002
317;0.8598627999999735;2997
318;0.8622254999991128;2991
319;0.8652156999996805;2985
320;0.8679811000001791;2977
321;0.871148299998822;2969
322;0.8740835999997216;2962
323;0.8770676000003732;2955
324;0.8800678999996308;2947
325;0.8830920000000333;2940
326;0.885931900000287;2932
327;0.889264399998865;2925
328;0.8922642999987147;2916
329;0.8953122999992047;2908
330;0.8983078000001115;2900
331;0.9013170999987778;2893
332;0.9043063999997685;2886
333;0.9073033000004216;2877
334;0.9103032000002713;2869
335;0.9133139999994455;2861
336;0.9163286999992124;2853
337;0.9189562999999907;2845
338;0.9223036999992473;2838
339;0.9253150000004098;2829
340;0.9283005999986926;2820
341;0.9309815999986313;2812
342;0.9339540000000852;2805
343;0.9373156999990897;2797
344;0.9403087999999116;2787
345;0.9431688999993639;2779
346;0.9463047999997798;2771
347;0.9491957999998704;2762
348;0.952161299999716;2754
349;0.9552721999989444;2745
350;0.958309100000406;2736
351;0.96098290000009;2727
352;0.9642844999998488;2720
353;0.9672878999990644;2709
354;0.9703004000002693;2701
355;0.9732860999993136;2692
356;0.9762946999999258;2684
357;0.9792897999996057;2674
358;0.9821952999991481;2666
359;0.985299699999814;2658
360;0.9883057999995799;2648
361;0.991299399998752;2640
362;0.9943180999998731;2631
363;0.9972846000000573;2622
364;1.0002924000000348;2613
365;1.0032873999989533;2604
366;1.0063011999991431;2595
367;1.0092969999986963;2586
368;1.0121122000000469;2578
369;1.0152913999991142;2569
370;1.0183049999996001;2559
371;1.021298100000422;2551
372;1.0242851000002702;2541
373;1.0273247999994055;2533
374;1.0302953999998863;2524
375;1.033293299999059;2514
376;1.0359974999992119;2506
377;1.0392855999998574;2498
378;1.0423130999988643;2488
379;1.045010399999228;2480
380;1.0469534999992902;2472
381;1.0502359999991313;2466
382;1.0531042999991769;2456
383;1.0562479000000167;2447
384;1.0590006000002177;2437
385;1.0622542000000976;2428
386;1.065316599999278;2418
387;1.0683038999995915;2409
388;1.071289199999228;2401
389;1.0742467000000033;2391
390;1.0772992999991402;2382
391;1.0802889999995386;2373
392;1.0832938000003196;2364
393;1.0862163999991026;2354
394;1.0892953000002308;2346
395;1.0922960999996576;2338
396;1.0952975999989576;2328
397;1.0982748999995238;2319
398;1.1013040999987425;2310
399;1.10429269999986;2301
400;1.1072969999986526;2292
401;1.1103067999993073;2283
402;1.11329349999869;2274
403;1.116307099999176;2266
404;1.1189708000001701;2257
405;1.1219569999993837;2249
406;1.1252898999991885;2241
407;1.1283143999989989;2230
408;1.1312798999988445;2222
409;1.134286599999541;2214
410;1.1372389999996813;2206
411;1.1403032999987772;2197
412;1.1432786999994278;2187
413;1.146309800000381;2179
414;1.149307300000146;2170
415;1.1521088999998028;2162
416;1.1548965000001772;2155
417;1.1581040999990364;2146
418;1.1615578999990248;2137
419;1.1655393999990338;2127
420;1.169083299999329;2114
421;1.172123799999099;2106
422;1.1751956999996764;2098
423;1.1781731999999465;2089
424;1.18117809999967;2081
425;1.1842287999988912;2073
426;1.1872169999987818;2065
427;1.190180399999008;2056
428;1.1931781999992381;2048
429;1.1962055999993026;2040
430;1.1992145000003802;2031
431;1.201915800000279;2024
432;1.2054494000003615;2017
433;1.2095388999987335;2006
434;1.2139564999997674;1994
435;1.219011799999862;1983
436;1.2239769999996497;1969
437;1.2290100999998685;1957
438;1.232814299999518;1945
439;1.2365386000001308;1935
440;1.2406768999990163;1927
441;1.244699999999284;1917
442;1.2484410999986721;1907
443;1.2525000999994518;1898
444;1.256625799998801;1888
445;1.2606185000004189;1878
446;1.2643967999993038;1869
447;1.2686565999993036;1860
448;1.272589500000322;1851
449;1.2766056999989814;1842
450;1.2806431999997585;1833
451;1.2846467999988818;1824
452;1.2886942999994062;1816
453;1.2926234999995359;1806
454;1.2966450999992958;1799
455;1.3007856999993237;1791
456;1.3048008999994636;1782
457;1.3087644999995973;1774
458;1.31225540000014;1766
459;1.315290799999275;1759
460;1.3191678999992291;1754
461;1.323801700000331;1746
462;1.3271918999998888;1739
463;1.330116499999349;1733
464;1.3331254000004265;1728
465;1.3360510999991675;1723
466;1.3390770999994857;1718
467;1.342058599999291;1713
468;1.344948599999043;1708
469;1.3471438999986276;1703
470;1.3500081000001956;1699
471;1.3518041999996058;1695
472;1.3538984999995591;1692
473;1.3559351999992941;1689
474;1.3578915999987657;1686
475;1.3598602000001847;1683
476;1.362930299999789;1678
477;1.364946300000156;1675
478;1.3680397999996785;1671
479;1.3701608999999735;1667
480;1.3732505999996647;1664
481;1.3759884999999485;1659
482;1.377892399999837;1656
483;1.3799428999991505;1654
484;1.381907400000273;1651
485;1.3838899999991554;1648
486;1.385924399999567;1645
487;1.3878955999989557;1642
488;1.3898683999996138;1640
489;1.3919167999993078;1637
490;1.3938452000002144;1635
491;1.3958279999988008;1632
492;1.3978556000001845;1630
493;1.39996710000014;1627
494;1.4019619999999122;1625
495;1.4038400999997975;1622
496;1.4069636000003811;1620
497;1.4088824999998906;1617
498;1.4109893999993801;1615
499;1.4129964000003383;1612
500;1.4148724999995466;1610
501;1.4168229999995674;1609
502;1.4190134999989823;1607
503;1.4219271999991179;1604
504;1.4253568000003725;1602
505;1.4279525999991165;1599
506;1.4299905999996554;1597
507;1.4319787999993423;1595
508;1.433970699999918;1593
509;1.4373568999999407;1591
510;1.4400171999986924;1589
511;1.4431793999992806;1587
512;1.4461797000003571;1585
513;1.4491997999994055;1582
514;1.451865999999427;1580
515;1.4543685999997251;1579
516;1.4572012999997241;1577
517;1.4602008999991085;1575
518;1.463170799999716;1574
519;1.4662400999986858;1573
520;1.470089000000371;1571
521;1.4733075999993162;1569
522;1.4763028999987;1568
523;1.4792945999997755;1567
524;1.4823440999989543;1566
525;1.484949499999857;1564
526;1.4873735999990458;1564
527;1.4902745999988838;1563
528;1.493151399999988;1562
529;1.4961583000003884;1561
530;1.4992163999995682;1561
531;1.502036899999439;1560
532;1.5040835999989213;1560
533;1.5071859999989101;1560
534;1.5101842999993096;1559
535;1.5131822000003012;1559
536;1.5161860999996861;1559
537;1.518845099999453;1559
538;1.520978999998988;1559
539;1.5231901999995898;1559
540;1.5261871999991854;1560
541;1.5291633999986516;1560
542;1.532065399998828;1561
543;1.5350429999998596;1561
544;1.5370920999994269;1562
545;1.5401404000003822;1563
546;1.54314229999909;1564
547;1.5462084999999206;1565
548;1.5491953999990073;1566
549;1.5520438000003196;1567
550;1.5540089999994962;1568
551;1.555984399999943;1568
552;1.5579854999996314;1569
553;1.5609927999994397;1570
554;1.5641651999994792;1572
555;1.5671634999998787;1574
556;1.5701532999992196;1576
557;1.573008100000152;1577
558;1.5758795000001555;1579
559;1.5779793000001519;1581
560;1.5799785999988671;1582
561;1.581919399999606;1584
562;1.5838887999998406;1585
563;1.585894300000291;1587
564;1.5878739999989193;1588
565;1.5898510999995779;1589
566;1.5928633999992599;1591
567;1.5948262000001705;1593
568;1.5968775999990612;1595
569;1.5988792999996804;1596
570;1.600857299999916;1598
571;1.6028384999990521;1600
572;1.6048293999992893;1601
573;1.6068833999997878;1604
574;1.6088354000003164;1606
575;1.610765100000208;1608
576;1.6127677000004041;1609
577;1.6147712000001775;1611
578;1.61677889999919;1613
579;1.6189096999987669;1615
580;1.620907200000147;1618
581;1.6228946999999607;1620
582;1.624878799999351;1622
583;1.6269697999996424;1624
584;1.628830100000414;1627
585;1.6310291999998299;1629
586;1.633028700000068;1631
587;1.634958499998902;1634
588;1.6369756999993115;1636
589;1.6389103000001342;1638
590;1.6408493999988423;1640
591;1.6431462000000465;1643
592;1.6449412999991182;1646
593;1.6468680999987555;1648
594;1.6488730999990366;1651
595;1.6507865000003221;1654
596;1.65285269999913;1656
597;1.6548143999989406;1659
598;1.6567990999992617;1662
599;1.658828399999038;1665
600;1.6608773999996629;1668
601;1.662938600000416;1671
602;1.664924599999722;1674
603;1.6668814999993629;1677
604;1.6689244999997754;1680
605;1.6709073999991233;1683
606;1.6728665999999066;1686
607;1.6747935999992478;1689
608;1.6768250999994052;1692
609;1.6788183999997273;1695
610;1.6807991999994556;1698
611;1.6828327999992325;1701
612;1.6848018999990018;1704
613;1.6869090999989567;1707
614;1.6889802999994572;1711
615;1.6909051999991789;1715
616;1.6927693999987241;1718
617;1.694762199998877;1721
618;1.6967650999995385;1724
619;1.6987680000002001;1727
620;1.7007728999997198;1731
621;1.702780100000382;1734
622;1.7047609000001103;1738
623;1.7067616999993334;1741
624;1.708764599999995;1745
625;1.7107638999987103;1749
626;1.7127640999988216;1753
627;1.714774899999611;1756
628;1.7167709999994258;1760
629;1.7188033000002179;1764
630;1.7207698000001983;1767
631;1.722764799998913;1771
632;1.7247623000002932;1775
633;1.7267615999990085;1779
634;1.7287598999992042;1783
635;1.7307684999996127;1787
636;1.7329028000003746;1791
637;1.734772099998736;1795
638;1.7368637999989005;1799
639;1.738859600000069;1804
640;1.740814999999202;1808
641;1.7428609999988112;1811
642;1.744847399999344;1816
643;1.7468769999995857;1820
644;1.7488163999987592;1824
645;1.7508335999991687;1828
646;1.7528466999992816;1832
647;1.754837000000407;1837
648;1.7568386999992072;1841
649;1.7588866999994934;1845
650;1.7607944999999745;1850
651;1.7627998999996635;1854
652;1.7647957999997743;1858
653;1.7668985000000248;1863
654;1.7693443999996816;1868
655;1.7719667999990634;1874
656;1.7748983000001317;1881
657;1.7771390999987489;1886
658;1.7799709999999322;1892
659;1.7829043000001548;1899
660;1.784875800000009;1905
661;1.7873304000004282;1910
662;1.7899426999993011;1916
663;1.7928823000002012;1923
664;1.7949048999998922;1929
665;1.7968963999992411;1934
666;1.7989223999993555;1939
667;1.8008852999992087;1943
668;1.8028784999987693;1949
669;1.8049105999998574;1954
670;1.8079605999992054;1960
671;1.8098238000002311;1967
672;1.8118971999992937;1971
673;1.8138221999997768;1976
674;1.8159114999998565;1981
675;1.8192241999986436;1989
676;1.8208795999998983;1996
677;1.8228743999989092;2000
678;1.8250740999992558;2005
679;1.8279474999999366;2011
680;1.8298443000003317;2019
681;1.8318268999992142;2024
682;1.8339424999994662;2029
683;1.835819599999013;2034
684;1.8378333000000566;2040
685;1.839876899999581;2044
686;1.8418705000003683;2050
687;1.843877600000269;2055
688;1.8458702999996603;2060
689;1.8478853999986313;2065
690;1.8502779999998893;2071
691;1.8532675999995263;2078
692;1.8560410999998567;2086
693;1.858019699999204;2094
694;1.8599259999991773;2099
695;1.8618186000003334;2104
696;1.8638563999993494;2109
697;1.8657984000001306;2114
698;1.8678695999988122;2119
699;1.8698172999993403;2125
700;1.8717868999992788;2130
701;1.8738310999997339;2136
702;1.8757946999994601;2142
703;1.8777632000001176;2147
704;1.8798467999986315;2153
705;1.8817722999992839;2159
706;1.883766299999479;2164
707;1.8857898999995086;2169
708;1.8877656999993633;2175
709;1.8897641000003205;2180
710;1.891764799998782;2185
711;1.8937660999999935;2190
712;1.8957761000001483;2196
713;1.8977615000003425;2202
714;1.8997619000001578;2208
715;1.901854199999434;2213
716;1.9039166000002297;2220
717;1.9058681999995315;2226
