;time;amplitude
0;0.005244800000582472;2514
1;0.010263600001053419;2514
2;0.015268400000422844;2514
3;0.0196749999995518;2514
4;0.02525650000097812;2514
5;0.03022400000008929;2515
6;0.034950700000990764;2514
7;0.04016150000097696;2514
8;0.045155699999668286;2515
9;0.04993160000049102;2515
10;0.055228500001248904;2515
11;0.060246400000323774;2514
12;0.06522820000100182;2514
13;0.0696509999997943;2514
14;0.07417490000079852;2514
15;0.07923590000063996;2513
16;0.08433180000065477;2513
17;0.08919810000043071;2513
18;0.09413640000093437;2513
19;0.09847400000035123;2513
20;0.10249719999956142;2512
21;0.10707840000031865;2513
22;0.11199909999959345;2514
23;0.11705670000083046;2513
24;0.12210220000088157;2513
25;0.12709329999961483;2513
26;0.13199510000049486;2513
27;0.1369632999994792;2513
28;0.14198320000105014;2513
29;0.14602150000064285;2514
30;0.15115090000108466;2514
31;0.15597270000034769;2514
32;0.15971840000020165;2514
33;0.16393890000108513;2514
34;0.16798569999991741;2514
35;0.1729391000008036;2514
36;0.17790290000084497;2513
37;0.18194299999959185;2513
38;0.18534030000046187;2512
39;0.18997219999982917;2512
40;0.19371099999989383;2512
41;0.19793329999993148;2512
42;0.2015331000002334;2512
43;0.20645560000048135;2512
44;0.21098890000030224;2512
45;0.2159633000010217;2513
46;0.2209418000002188;2513
47;0.22483649999958288;2512
48;0.22883879999972123;2512
49;0.23293310000008205;2513
50;0.23685330000080285;2513
51;0.24087080000026617;2512
52;0.24484649999976682;2512
53;0.24996090000058757;2512
54;0.25385459999961313;2513
55;0.2586308999998437;2513
56;0.2625974000002316;2513
57;0.26661980000062613;2513
58;0.2709615000003396;2512
59;0.27469100000053004;2513
60;0.27893980000044394;2513
61;0.28266919999987294;2512
62;0.286694800000987;2512
63;0.29093880000073113;2512
64;0.2946681000012177;2512
65;0.29892409999956726;2512
66;0.30395739999949;2512
67;0.3078149000011763;2511
68;0.31185829999958514;2511
69;0.3164240999994945;2512
70;0.31968419999975595;2512
71;0.32394209999984014;2511
72;0.32769680000092194;2511
73;0.33147310000094876;2511
74;0.33537580000120215;2511
75;0.33998050000082003;2511
76;0.3449319999999716;2511
77;0.3488617000002705;2510
78;0.3538501000002725;2510
79;0.3578255000011268;2511
80;0.3624861000007513;2511
81;0.36694840000018303;2511
82;0.37082399999962945;2510
83;0.37481909999951313;2510
84;0.3782941999998002;2510
85;0.38174869999966177;2509
86;0.3854054000003089;2509
87;0.3899725999999646;2509
88;0.394933100000344;2509
89;0.3985931999995955;2508
90;0.4024181000004319;2508
91;0.4055898000005982;2508
92;0.40924730000006093;2508
93;0.41275130000030913;2508
94;0.41672990000006394;2508
95;0.4207958000006329;2508
96;0.42461850000108825;2508
97;0.4286788000008528;2507
98;0.4327057999998942;2507
99;0.4367117000001599;2506
100;0.4402735000003304;2506
101;0.44322830000055546;2506
102;0.44670330000008107;2506
103;0.45076760000119975;2506
104;0.45472499999959837;2506
105;0.45825150000018766;2505
106;0.4612400999994861;2504
107;0.4646926000004896;2504
108;0.4682226000004448;2504
109;0.471631399999751;2504
110;0.4755148000003828;2504
111;0.47953489999963494;2504
112;0.48352520000116783;2503
113;0.4864335000002029;2503
114;0.4905581000002712;2503
115;0.4945482000002812;2503
116;0.4985534999996162;2503
117;0.5025478000006842;2502
118;0.5067165000000386;2502
119;0.5107280000011087;2502
120;0.5146916000012425;2501
121;0.5181697999996686;2501
122;0.5216848000000027;2501
123;0.5257256000004418;2500
124;0.5297611999994842;2500
125;0.5334554000000935;2500
126;0.5364779999999882;2500
127;0.5396572000008746;2500
128;0.5436029000011331;2500
129;0.5478084000005765;2499
130;0.5513860000010027;2499
131;0.5558240000009391;2499
132;0.5597443000006024;2499
133;0.5637597000004462;2499
134;0.567866999999751;2498
135;0.5727673000001232;2498
136;0.5767066999997041;2497
137;0.5803281999997125;2497
138;0.5844661999999516;2497
139;0.5876423999998224;2496
140;0.5916878999996698;2496
141;0.5957104999997682;2496
142;0.5997430999996141;2495
143;0.6037586000002193;2495
144;0.607662700000219;2495
145;0.6115224000004673;2494
146;0.6157070999997813;2494
147;0.6196713999997883;2493
148;0.6236714999995456;2493
149;0.6273658000009164;2492
150;0.6318241000008129;2492
151;0.6353149000005942;2491
152;0.6397692000009556;2491
153;0.6432827000007819;2491
154;0.64783830000124;2490
155;0.651373099999546;2490
156;0.6558428000007552;2490
157;0.659284999999727;2489
158;0.6622648000011395;2489
159;0.6668387999998231;2488
160;0.6707722999999532;2488
161;0.67414860000099;2487
162;0.6777462999998534;2487
163;0.6817568999995274;2486
164;0.6852837999995245;2486
165;0.6887748999997712;2485
166;0.6927945999996155;2485
167;0.6967464999997901;2484
168;0.7007750000011583;2483
169;0.7047139999995125;2483
170;0.7085224000002199;2482
171;0.7127512999995815;2482
172;0.7167463000005228;2480
173;0.720760700000028;2480
174;0.7246926999996504;2480
175;0.7288077000011981;2480
176;0.7327516000004834;2479
177;0.7367367000006197;2478
178;0.7407182999995712;2478
179;0.7446682000008877;2477
180;0.7488274999996065;2477
181;0.752592700000605;2476
182;0.7555251000012504;2476
183;0.7597234000004391;2475
184;0.763804700000037;2475
185;0.7677333000010549;2475
186;0.7717227000011917;2474
187;0.7756792000000132;2474
188;0.7797719999998662;2473
189;0.7837854999997944;2472
190;0.7875454000004538;2472
191;0.7915322999997443;2472
192;0.79554459999963;2471
193;0.7995509000011225;2470
194;0.80227879999984;2469
195;0.8056690000012168;2469
196;0.8097221000007266;2469
197;0.813778400000956;2469
198;0.8177871000007144;2469
199;0.8217084999996587;2468
200;0.8257145000006858;2467
201;0.8297701999999845;2466
202;0.8336230000004434;2466
203;0.8377553999998781;2465
204;0.8417351000007329;2464
205;0.8457049999997253;2464
206;0.8496916000003694;2462
207;0.8537672000002203;2462
208;0.8576907000006031;2462
209;0.8617147000004479;2461
210;0.8663656999997329;2460
211;0.8696944000002986;2459
212;0.873711700000058;2458
213;0.8777614999999059;2458
214;0.8817957999999635;2457
215;0.8853419000006397;2455
216;0.8885339000007662;2455
217;0.8928057000011904;2454
218;0.8967023000004701;2454
219;0.9007791000003635;2453
220;0.9047129999999015;2452
221;0.9087011000010534;2452
222;0.9127217000004748;2451
223;0.9167121999998926;2450
224;0.9207550999999512;2450
225;0.9247286000008899;2449
226;0.928754000000481;2448
227;0.9327449000011256;2447
228;0.9367268000005424;2446
229;0.9407356000010623;2445
230;0.9447048000001814;2445
231;0.9487741000011738;2444
232;0.9526106000012078;2443
233;0.9567881000002671;2442
234;0.9602543000000878;2442
235;0.9632258000001457;2441
236;0.9667767999999342;2440
237;0.9707169000012073;2439
238;0.9746198000011645;2439
239;0.9780676000009407;2438
240;0.9816627000000153;2438
241;0.985242400000061;2437
242;0.9885396999998193;2435
243;0.9914096000011341;2435
244;0.9944076000010682;2434
245;0.9975876000007702;2433
246;1.0014047000004211;2433
247;1.004430400000274;2432
248;1.0075561000012385;2431
249;1.0118194999995467;2431
250;1.0157725000008213;2430
251;1.0195323000007193;2429
252;1.023823600000469;2428
253;1.0277762000005168;2427
254;1.0318148999995174;2426
255;1.03529300000082;2426
256;1.0386426000004576;2425
257;1.0428128000003198;2424
258;1.0466424000005645;2424
259;1.050738600000841;2423
260;1.0547411000006832;2422
261;1.0586832999997569;2421
262;1.0627863999998226;2421
263;1.066802800000005;2420
264;1.0707878000011988;2420
265;1.0747833000004903;2418
266;1.0787615999997797;2417
267;1.0833142000010412;2417
268;1.0865073000004486;2416
269;1.090786599999774;2416
270;1.0947575999998662;2415
271;1.0987715999999637;2414
272;1.1025440000012168;2413
273;1.1067409000006592;2413
274;1.1107097000003705;2412
275;1.1147481000007247;2411
276;1.1183321000007709;2410
277;1.121693700000833;2409
278;1.1257408000001305;2409
279;1.1297553000003973;2408
280;1.1337820000007923;2407
281;1.1377217000008386;2406
282;1.1417388999998366;2405
283;1.1445032999999967;2404
284;1.1487362999996549;2404
285;1.1526873000002524;2403
286;1.156721400000606;2401
287;1.1607179000002361;2400
288;1.1647420999997848;2399
289;1.168336000000636;2399
290;1.171648900000946;2398
291;1.1752061000006506;2397
292;1.1781989999999496;2396
293;1.1812277999997605;2395
294;1.1840487999998004;2395
295;1.187122299999828;2394
296;1.1899732000001677;2393
297;1.1931165000005421;2392
298;1.1967830000012327;2392
299;1.2007912999997643;2391
300;1.2046327000007295;2390
301;1.2076078999998572;2389
302;1.2115950000006706;2388
303;1.2156267999998818;2388
304;1.2196187999998074;2387
305;1.2236253999999462;2387
306;1.227634599999874;2386
307;1.2316174999996292;2385
308;1.235598299999765;2385
309;1.2385142000002816;2383
310;1.242610600000262;2383
311;1.246616800000993;2382
312;1.2506069999999454;2382
313;1.2546115000004647;2381
314;1.258634300000267;2380
315;1.262630999999601;2379
316;1.2666225000011764;2378
317;1.26916490000076;2378
318;1.2724058000003424;2377
319;1.2753647999998066;2377
320;1.2783821000011812;2376
321;1.2814028000011604;2375
322;1.2841461999996682;2375
323;1.2874224999995931;2373
324;1.2904063000005408;2372
325;1.293315300001268;2372
326;1.2964088000007905;2371
327;1.2994032000005973;2370
328;1.3023874999998952;2370
329;1.3053196000000753;2369
330;1.3083094000012352;2369
331;1.311321200000748;2369
332;1.3143522999998822;2368
333;1.3172663000004832;2367
334;1.3203496999994968;2367
335;1.3233471000003192;2366
336;1.3263551000000007;2365
337;1.3293475999998918;2364
338;1.3321556999999302;2364
339;1.3353908000008232;2364
340;1.3382203000001027;2364
341;1.341218100000333;2363
342;1.3442563000007794;2362
343;1.3472141000002011;2362
344;1.3503049000009923;2361
345;1.3533480999994936;2361
346;1.3563503000004857;2359
347;1.3596608000007109;2359
348;1.3637269999999262;2358
349;1.3672900000001391;2358
350;1.3706511000000319;2357
351;1.3745794999995269;2357
352;1.3786209999998391;2356
353;1.3825412999995024;2355
354;1.386623200000031;2355
355;1.3906222000005073;2354
356;1.394612699999925;2354
357;1.398311900000408;2353
358;1.4010758000003989;2353
359;1.4045741000009002;2352
360;1.4086234999995213;2351
361;1.4126109999997425;2350
362;1.4165401999998721;2350
363;1.419590400000743;2350
364;1.4236134000002494;2350
365;1.427613800000472;2349
366;1.4316483000002336;2349
367;1.435549699999683;2350
368;1.439610299999913;2349
369;1.4436139999997977;2349
370;1.4471140000005107;2348
371;1.4506725000010192;2348
372;1.4546198999996705;2347
373;1.4586247000006551;2347
374;1.462197599999854;2346
375;1.4650246000001061;2346
376;1.4681414000006043;2345
377;1.4713972000008653;2345
378;1.4751904000004288;2345
379;1.4782525000009628;2344
380;1.4812199999996665;2344
381;1.4841794000003574;2343
382;1.4871987000005902;2343
383;1.490168000000267;2343
384;1.4931723000008787;2343
385;1.4962642999998934;2342
386;1.4994593000010354;2342
387;1.50252460000047;2342
388;1.5066124000004493;2341
389;1.5106176999997842;2341
390;1.5146187000009377;2340
391;1.5180159000010462;2340
392;1.51999590000014;2340
393;1.5220127000011416;2339
394;1.5240348000006634;2339
395;1.52604650000103;2339
396;1.5280500000008033;2339
397;1.530274400000053;2339
398;1.5333276000001206;2339
399;1.5365634999998292;2338
400;1.5406438000009075;2338
401;1.5446711000004143;2338
402;1.5487117000011494;2337
403;1.5526011000001745;2337
404;1.5566715000004478;2337
405;1.5606500000012602;2337
406;1.5646281999997882;2336
407;1.5683967000004486;2336
408;1.5715395999995962;2335
409;1.5745156000011775;2335
410;1.5775554000010743;2335
411;1.5811344000012468;2334
412;1.5840007000006153;2334
413;1.5860816000003979;2334
414;1.5890598999994836;2334
415;1.5925944000009622;2334
416;1.5962904000007256;2334
417;1.599571000000651;2334
418;1.602605100000801;2334
419;1.6066368000010698;2333
420;1.6106285999994725;2333
421;1.6135377999999037;2332
422;1.6165240999998787;2332
423;1.6196022000003722;2332
424;1.6236151000011887;2332
425;1.6275686000008136;2332
426;1.6306044000011752;2332
427;1.6341510000002017;2332
428;1.6375820000012027;2332
429;1.6416403000002902;2331
430;1.6456362000008085;2330
431;1.6496250000000146;2330
432;1.6520540000001347;2329
433;1.654567200001111;2330
434;1.6586308999994799;2329
435;1.6616033999998763;2329
436;1.6656264000012015;2329
437;1.6696312000003672;2328
438;1.6736146000002918;2328
439;1.6765568000009807;2328
440;1.6805746999998519;2328
441;1.684148100001039;2327
442;1.6875779000001785;2327
443;1.69154940000044;2328
444;1.6945432000011351;2327
445;1.6975409999995463;2327
446;1.7005750000007538;2327
447;1.7046374000001379;2327
448;1.7086415000012494;2327
449;1.7126327999994828;2327
450;1.7166455999995378;2327
451;1.7196100000001024;2327
452;1.7230873000007705;2327
453;1.7251453000008041;2327
454;1.727005900000222;2327
455;1.7289866999999504;2327
456;1.7309851000009076;2328
457;1.7329597000007197;2328
458;1.7349066999995557;2328
459;1.7369595000000118;2328
460;1.7399990000012622;2328
461;1.7420419999998558;2328
462;1.7454976000008173;2328
463;1.7484449000003224;2328
464;1.751125000000684;2328
465;1.7542604000009305;2328
466;1.7572555000006105;2328
467;1.760256900000968;2328
468;1.7632659999999305;2328
469;1.7662648000004992;2328
470;1.7692705000008573;2328
471;1.7722544999996899;2329
472;1.7752541999998357;2329
473;1.7782621999995172;2329
474;1.7812606999996206;2329
475;1.7839784999996482;2329
476;1.7862877000006847;2329
477;1.7892556999995577;2329
478;1.7922644000009313;2329
479;1.7952564999995957;2329
480;1.7982506999996986;2329
481;1.801068300001134;2328
482;1.804263300000457;2328
483;1.80725750000056;2328
484;1.8102863000003708;2328
485;1.813262300000133;2328
486;1.81626420000066;2329
487;1.8192661000011867;2329
488;1.8222626999995555;2329
489;1.82526610000059;2329
490;1.8282677000006515;2329
491;1.8312623000001622;2329
492;1.834088999999949;2329
493;1.8372557000002416;2329
494;1.8402416999997513;2329
495;1.8432529000001523;2329
496;1.8461117000006197;2329
497;1.8492256999998062;2329
498;1.8522499999999127;2330
499;1.8552428000002692;2330
500;1.8582421999999497;2330
501;1.861247099999673;2330
502;1.8643306000012672;2330
503;1.8671047999996517;2330
504;1.8703206999998656;2330
505;1.8733102999995026;2331
506;1.8762870999998995;2331
507;1.8793282000006002;2331
508;1.8823360999995202;2331
509;1.8853407000005973;2331
510;1.8883347000009962;2332
511;1.8913210999999137;2332
512;1.8943195000010746;2332
513;1.8970719000008103;2332
514;1.9003413999998884;2331
515;1.9033354000002873;2331
516;1.9063421999999264;2332
517;1.9093083999996452;2332
518;1.9123457000005146;2332
519;1.9153117000005295;2332
520;1.9183546000003844;2332
521;1.9213245999999344;2332
522;1.9243103999997402;2331
523;1.9273117000011553;2332
524;1.9303326999997807;2332
525;1.9333205000002636;2332
526;1.9363505000001169;2332
527;1.9393392000001768;2332
528;1.9423236000002362;2331
529;1.9452361000003293;2331
530;1.9483374000010372;2331
531;1.951181100001122;2331
532;1.954315000000861;2331
533;1.957313200000499;2331
534;1.9599354000001767;2331
535;1.9631645000008575;2330
536;1.9662036000008811;2331
537;1.969342800000959;2330
538;1.972303300000931;2330
539;1.9752917000005255;2331
540;1.9783399999996618;2331
541;1.9813066000006074;2331
542;1.984011399999872;2331
543;1.9871596000011778;2331
544;1.9901731000009022;2330
545;1.9931647000012163;2330
546;1.996162400000685;2330
547;1.99914870000066;2330
548;2.0023405000010825;2330
549;2.0053318999998737;2330
550;2.008403300000282;2330
551;2.011700299999575;2331
552;2.0157311000002665;2330
553;2.019702999999936;2330
554;2.0237223000003723;2330
555;2.0277208000006794;2331
556;2.031706800000393;2330
557;2.035568000001149;2330
558;2.0396682000009605;2330
559;2.043632200000502;2330
560;2.0476357999996253;2330
561;2.0506361999996443;2330
562;2.054639500000121;2329
563;2.0586462000010215;2329
564;2.0626412000001437;2329
565;2.066609800000151;2330
566;2.070665799999915;2330
567;2.0746324000010645;2330
568;2.0786707000006572;2330
569;2.0826670000005834;2330
570;2.0866605999999592;2330
571;2.0906637999996747;2330
572;2.094662100000278;2330
573;2.0986006000002817;2330
574;2.102633500000593;2330
575;2.106659799999761;2331
576;2.1106550000004063;2331
577;2.1135977000012645;2332
578;2.1172850000002654;2332
579;2.121657800000321;2332
580;2.1256438000000344;2332
581;2.129641300000003;2332
582;2.1337211999998544;2332
583;2.1376613000011275;2332
584;2.1416717000010976;2332
585;2.14557109999987;2332
586;2.1485099000001355;2332
587;2.1525115000004007;2331
588;2.1566648999996687;2331
589;2.160644499999762;2331
590;2.1646700000001147;2332
591;2.168581300000369;2331
592;2.172659800000474;2331
593;2.1772190000010596;2331
594;2.180625200000577;2331
595;2.1842311000000336;2331
596;2.1875834000002214;2331
597;2.1916485000001558;2330
598;2.195673500000339;2330
599;2.199657799999841;2330
600;2.2025750000011612;2331
601;2.206258300000627;2330
602;2.209592299999713;2330
603;2.2136583999999857;2330
604;2.217240400001174;2330
605;2.2206053999998403;2331
606;2.223590699999477;2332
607;2.2276624999994965;2332
608;2.231632200000604;2332
609;2.2355955000002723;2332
610;2.2396667000011803;2331
611;2.243641500001104;2331
612;2.2476888000001054;2332
613;2.2511948000010307;2331
614;2.2545910000008007;2332
615;2.2586663000001863;2331
616;2.2626653000006627;2331
617;2.2666645999997854;2331
618;2.2694050000009156;2332
619;2.2736597000002803;2332
620;2.277691400000549;2332
621;2.2816309000008914;2332
622;2.2851584000000003;2332
623;2.288625700000921;2332
624;2.2926598000012746;2332
625;2.2966374999996333;2332
626;2.3003929999995307;2332
627;2.3047046000010596;2332
628;2.308634200000597;2332
629;2.312644800000271;2332
630;2.31629090000024;2333
631;2.319112600000153;2333
632;2.321990200000073;2333
633;2.324079100000745;2333
634;2.3259634999994887;2333
635;2.327978900000744;2333
636;2.3300459000001865;2333
637;2.331942099999651;2334
638;2.3339890000006562;2333
639;2.3360071999995853;2333
640;2.3379569000007905;2333
641;2.339976700000989;2334
642;2.3429553999994823;2333
643;2.3449548999997205;2333
644;2.347028500000306;2333
645;2.348865800000567;2333
646;2.3510941000004095;2333
647;2.3529880000005505;2333
648;2.354992000000493;2333
649;2.357013900000311;2333
650;2.3589650000012625;2333
651;2.3608994000005623;2333
652;2.3628996000006737;2334
653;2.3649894000009226;2333
654;2.3669683000007353;2334
655;2.3689649000007194;2334
656;2.370881000000736;2334
657;2.372946299999967;2334
658;2.3750223999995796;2334
659;2.377026100000876;2334
660;2.379025100000945;2334
661;2.38101800000004;2334
662;2.383041900000535;2334
663;2.384988300000259;2335
664;2.3870182000009663;2335
665;2.388956799999505;2335
666;2.390996100000848;2335
667;2.3928930000001856;2335
668;2.3948947000008047;2334
669;2.3969598000003316;2335
670;2.3989515000012034;2335
671;2.401902900001005;2335
672;2.403953900000488;2335
673;2.4058899999999994;2335
674;2.407983900000545;2335
675;2.4099211000011564;2335
676;2.411932400000296;2336
677;2.4138366999995924;2335
678;2.415839200000846;2336
679;2.417913100000078;2336
680;2.4198976999996376;2336
681;2.421859100000802;2336
682;2.423843200000192;2336
683;2.4258546000000933;2336
684;2.4278499000010925;2336
685;2.429908500000238;2336
686;2.4319035000007716;2336
687;2.433908099999826;2337
688;2.4358248000007734;2336
689;2.437856599999577;2336
690;2.43984570000066;2337
691;2.442050100000415;2336
692;2.444080999999642;2336
693;2.4470307000010507;2337
694;2.4490521999996417;2337
695;2.4510795999995025;2337
696;2.4530099000003247;2337
697;2.4549989000006462;2337
698;2.4569618000004994;2337
699;2.4589247000003525;2336
700;2.4609923000007257;2336
701;2.4629039999999804;2336
702;2.4648907000009785;2337
703;2.4676732999996602;2337
704;2.4700063000000227;2337
705;2.471881100000246;2337
706;2.474010600000838;2337
707;2.475892100001147;2337
708;2.4778454000006604;2337
709;2.4799932000005356;2337
710;2.4819872999996733;2337
711;2.4839470999995683;2337
712;2.486021000000619;2338
713;2.4879801999995834;2338
714;2.489945000001171;2338
715;2.491939100000309;2338
716;2.4940057000003435;2338
717;2.495891800001118;2338
718;2.497931300000346;2337
719;2.499948700000459;2338
