;time;amplitude
0;0.00539290000051551;2312
1;0.009903300000587478;2311
2;0.015345199999501347;2311
3;0.019768199999816716;2310
4;0.0254917000002024;2310
5;0.031099499999982072;2311
6;0.03576459999931103;2310
7;0.041451799999776995;2310
8;0.04634970000006433;2309
9;0.051093699999910314;2308
10;0.05609609999919485;2308
11;0.06101239999952668;2307
12;0.06602170000041951;2307
13;0.0700687000007747;2307
14;0.07512379999934637;2307
15;0.08017449999897508;2307
16;0.08468879999963974;2306
17;0.08958309999979974;2306
18;0.09403070000007574;2306
19;0.0990328000007139;2305
20;0.10397369999918737;2305
21;0.10894519999965269;2305
22;0.11291960000016843;2306
23;0.11696639999900071;2306
24;0.1220802999996522;2307
25;0.1257783000000927;2307
26;0.13000909999936994;2307
27;0.1347167999992962;2307
28;0.13878520000071148;2307
29;0.1440719000001991;2307
30;0.14799839999977848;2307
31;0.1525653999997303;2307
32;0.15704200000072888;2307
33;0.16203829999903974;2307
34;0.16688439999961702;2307
35;0.1719969999994646;2307
36;0.17695330000060494;2308
37;0.18197309999959543;2308
38;0.18701719999990019;2308
39;0.19202949999998964;2308
40;0.19697029999952065;2308
41;0.20156630000019504;2308
42;0.2059824000007211;2308
43;0.2109651999999187;2308
44;0.21597019999899203;2309
45;0.21947809999983292;2309
46;0.224019600000247;2310
47;0.22894819999964966;2310
48;0.23241330000018934;2311
49;0.23543659999995725;2311
50;0.23836040000060166;2311
51;0.2417292999998608;2311
52;0.2457537999998749;2311
53;0.24977389999912702;2311
54;0.2535841999997501;2311
55;0.25662799999918207;2312
56;0.2606457000001683;2312
57;0.2646545999996306;2312
58;0.2682244999996328;2313
59;0.2724202999997942;2314
60;0.27642349999950966;2313
61;0.27943579999919166;2313
62;0.2824553999998898;2314
63;0.28531979999934265;2313
64;0.2886333000005834;2313
65;0.2926191000005929;2314
66;0.2967255000003206;2314
67;0.30085630000030505;2314
68;0.30422550000002957;2314
69;0.30752989999928104;2314
70;0.31155220000073314;2315
71;0.3156175999993138;2315
72;0.3195594999997411;2316
73;0.323679600000105;2316
74;0.32766540000011446;2316
75;0.3316515000005893;2316
76;0.33544629999960307;2316
77;0.3386012999999366;2316
78;0.34268689999953494;2316
79;0.34665660000064236;2317
80;0.35016130000076373;2318
81;0.3536812000002101;2319
82;0.3575362999999925;2319
83;0.36115199999949255;2320
84;0.36446950000026845;2320
85;0.36816729999918607;2320
86;0.37269820000074105;2320
87;0.3766500999990967;2321
88;0.3806507999997848;2321
89;0.38422220000029483;2321
90;0.38770130000011704;2321
91;0.3917526999994152;2322
92;0.3955757999992784;2322
93;0.39931520000027376;2322
94;0.40225979999922856;2323
95;0.4055938999990758;2324
96;0.40969089999998687;2324
97;0.41372190000038245;2325
98;0.4165413999999146;2325
99;0.4195101999994222;2325
100;0.42364459999953397;2326
101;0.42762969999967027;2326
102;0.43173860000024433;2326
103;0.4352541000007477;2326
104;0.43969920000017737;2327
105;0.44366810000065016;2328
106;0.4470971999999165;2328
107;0.4501839000004111;2329
108;0.4536105999995925;2329
109;0.4576844999992318;2330
110;0.46174129999963043;2330
111;0.46570190000056755;2331
112;0.46973090000028606;2332
113;0.47364310000011756;2332
114;0.4775625999991462;2333
115;0.4816510999989987;2334
116;0.48534400000062305;2334
117;0.4896649999991496;2334
118;0.4931854000005842;2335
119;0.4976848999995127;2335
120;0.5011617000000115;2336
121;0.5044522999996843;2336
122;0.5073988000003737;2337
123;0.5106111999994027;2337
124;0.5147128000007797;2337
125;0.5182232999995904;2338
126;0.5227570000006381;2338
127;0.5261329999993904;2339
128;0.5294844000000012;2339
129;0.5337115000002086;2340
130;0.5372836000005918;2340
131;0.5404562999992777;2341
132;0.544665299999906;2342
133;0.5486373999992793;2342
134;0.5526181999994151;2342
135;0.5564355999995314;2343
136;0.5591487000001507;2343
137;0.5619683000004443;2344
138;0.563962399999582;2345
139;0.5659312000007048;2345
140;0.5679029000002629;2345
141;0.5700495000000956;2345
142;0.5730533999994805;2346
143;0.5750067999997555;2346
144;0.5772132000001875;2347
145;0.5802284000001237;2347
146;0.5832265999997617;2348
147;0.5863867000007303;2348
148;0.5902532000000065;2349
149;0.5932460999993054;2350
150;0.5963276999991649;2350
151;0.5989611000004516;2351
152;0.6022257999993599;2352
153;0.6052242000005208;2352
154;0.6083218999992823;2353
155;0.6113387000004877;2353
156;0.6143173999989813;2354
157;0.6171919999997044;2354
158;0.62032630000067;2354
159;0.6232263000001694;2356
160;0.6259730000001582;2356
161;0.6282028999994509;2357
162;0.6310914000005141;2358
163;0.6338816000006773;2358
164;0.6362881000004563;2358
165;0.6394686000003276;2359
166;0.643555099999503;2360
167;0.6475692999993043;2360
168;0.6515251000000717;2361
169;0.6560279000004812;2362
170;0.6597053999994387;2363
171;0.663795399999799;2364
172;0.6675890000005893;2364
173;0.671841499999573;2365
174;0.6758470999993733;2366
175;0.6798631999990903;2367
176;0.6838795000003302;2368
177;0.6877817999993567;2368
178;0.6917928999992;2369
179;0.6958400999992591;2370
180;0.7004066999998031;2370
181;0.7049078000000009;2371
182;0.709866699999111;2372
183;0.7132848000001104;2373
184;0.7177300000003015;2374
185;0.7218656000004557;2375
186;0.7258581999994931;2377
187;0.7296640999993542;2377
188;0.7339510999991035;2378
189;0.7377675000007002;2379
190;0.7417875999999524;2380
191;0.7451682999999321;2381
192;0.7482830999997532;2382
193;0.7511482999998407;2383
194;0.754718000000139;2383
195;0.758452899999611;2384
196;0.7615258999994694;2385
197;0.7652756000006775;2386
198;0.7691673999997874;2387
199;0.7725712999999814;2388
200;0.7765758999994432;2389
201;0.7805633999996644;2390
202;0.7840142999993986;2391
203;0.787423800000397;2392
204;0.7912190999995801;2392
205;0.7943314999993163;2393
206;0.7971477999999479;2393
207;0.8001490000006015;2394
208;0.8036006000002089;2395
209;0.8076235999997152;2396
210;0.8115937000002305;2397
211;0.8156134000000748;2398
212;0.8191105000005336;2399
213;0.8225956999995105;2399
214;0.8266084999995655;2400
215;0.8306417999992846;2401
216;0.8341751999996632;2403
217;0.8375224999999773;2404
218;0.8416414000002987;2405
219;0.8455739999990328;2406
220;0.8504881999997451;2407
221;0.8541831000002276;2407
222;0.8574735000001965;2408
223;0.8615315999995801;2409
224;0.865479599999162;2411
225;0.8680922999992617;2412
226;0.871432800000548;2413
227;0.875486799999635;2414
228;0.8794990999995207;2414
229;0.8821432999993704;2415
230;0.8853806999995868;2415
231;0.8883834999996907;2416
232;0.8913955000007263;2417
233;0.8943927000000258;2418
234;0.897394899999199;2418
235;0.9005589000007603;2419
236;0.9033942000005482;2420
237;0.9064146999990044;2421
238;0.9105156999994506;2422
239;0.9145169999992504;2423
240;0.9181441999990057;2424
241;0.9214362999991863;2425
242;0.9244328000004316;2426
243;0.9285039999995206;2427
244;0.9323721999990084;2428
245;0.9354519000007713;2428
246;0.9395017000006192;2429
247;0.9435052999997424;2429
248;0.9475206000006438;2430
249;0.9512130000002799;2431
250;0.9544533000007505;2432
251;0.9574192000000039;2433
252;0.960413000000699;2434
253;0.9635491999997612;2435
254;0.9665280999997776;2435
255;0.9694233999998687;2436
256;0.9724150000001828;2437
257;0.97544519999974;2438
258;0.9782768999994005;2438
259;0.9812863000006473;2439
260;0.9842050000006566;2439
261;0.9871970000003785;2440
262;0.9902953999990132;2441
263;0.993314499999542;2442
264;0.9963446000001568;2443
265;0.9993054999995366;2443
266;1.00234300000011;2444
267;1.0053425999994943;2445
268;1.0083505000002333;2446
269;1.0111054999997577;2446
270;1.014350999999806;2447
271;1.0171038000007684;2448
272;1.0203433000006044;2448
273;1.0233423999998195;2449
274;1.0262743000002956;2450
275;1.029233799999929;2451
276;1.0322034000000713;2451
277;1.0352340999997978;2452
278;1.0380872000005184;2453
279;1.0412427999999636;2454
280;1.0442373999994743;2454
281;1.0472263999999996;2455
282;1.0502496999997675;2455
283;1.053208999999697;2455
284;1.0562432000006083;2457
285;1.0592354000000341;2457
286;1.0622275000005175;2457
287;1.065227999999479;2458
288;1.0682386000007682;2459
289;1.0712437000001955;2460
290;1.0741335000002437;2460
291;1.0772405999996408;2461
292;1.0802423999994062;2462
293;1.0832319999990432;2463
294;1.086238100000628;2464
295;1.089061099999526;2465
296;1.0922209999989718;2466
297;1.0952130000005127;2467
298;1.0982115999995585;2468
299;1.10098730000027;2469
300;1.1042164999998931;2469
301;1.1072069000001648;2470
302;1.110212199999296;2471
303;1.113210600000457;2472
304;1.1161905999997543;2472
305;1.1192043999999441;2473
306;1.1222185999995418;2474
307;1.1251766999994288;2475
308;1.1282093999998324;2476
309;1.1312139999990904;2477
310;1.1340603999997256;2478
311;1.1372186999997211;2479
312;1.1401894999999058;2480
313;1.143313999999009;2480
314;1.1463129999992816;2481
315;1.1493188999993436;2482
316;1.1521453999994264;2482
317;1.1553205000000162;2483
318;1.158321299999443;2484
319;1.1613068999995448;2484
320;1.1643177999994805;2485
321;1.167003399999885;2486
322;1.1703182999990531;2486
323;1.1733151000007638;2487
324;1.176312899999175;2487
325;1.1793130000005476;2488
326;1.1823124999991705;2489
327;1.185332400000334;2489
328;1.1883381999996345;2491
329;1.191311599999608;2491
330;1.19431749999967;2492
331;1.1973474999995233;2492
332;1.2003291999990324;2493
333;1.2033339999998134;2494
334;1.206313399999999;2494
335;1.2093074999993405;2495
336;1.2123179999998683;2495
337;1.2153182000001834;2495
338;1.2182904000001145;2496
339;1.2213044000000082;2497
340;1.2242822000007436;2497
341;1.2272462000000814;2498
342;1.230032299999948;2498
343;1.2330194999995001;2499
344;1.236300399999891;2499
345;1.2392927999990206;2500
346;1.2421931999997469;2500
347;1.2452462000001105;2501
348;1.2482791999991605;2502
349;1.2509654999994382;2502
350;1.2543279000001348;2503
351;1.2576802000003227;2504
352;1.2616851000002498;2504
353;1.2656351000005088;2505
354;1.2692683999994188;2506
355;1.2722579000001133;2506
356;1.2752603999997518;2507
357;1.278279800000746;2508
358;1.2812644999994518;2509
359;1.2840868000002956;2510
360;1.2875638000004983;2510
361;1.2914127000003646;2511
362;1.2942325999993045;2512
363;1.2973779999992985;2513
364;1.300493999999162;2513
365;1.3033372999998392;2514
366;1.3060525999990205;2514
367;1.309234500000457;2515
368;1.3123249000000214;2516
369;1.3153270000002522;2516
370;1.3183540999998513;2517
371;1.321322699999655;2518
372;1.3243357999999716;2518
373;1.3272281999998086;2519
374;1.3303429999996297;2519
375;1.333357800000158;2520
376;1.336308599999029;2521
377;1.3393075999993016;2521
378;1.3423081999990245;2521
379;1.3452890000007756;2522
380;1.3479807999992772;2522
381;1.3511201000001165;2523
382;1.3543157999993127;2523
383;1.357331900000645;2524
384;1.3602852999993047;2525
385;1.3632866999996622;2526
386;1.3660687999999936;2526
387;1.369721600000048;2527
388;1.3737137999996776;2528
389;1.377543099999457;2528
390;1.3821879000006447;2529
391;1.3855129999992641;2529
392;1.3883779000007053;2530
393;1.39137540000047;2530
394;1.3945203000002948;2530
395;1.397253200000705;2531
396;1.4002619000002596;2531
397;1.403274700000111;2531
398;1.4062684000000445;2531
399;1.4092643999993015;2532
400;1.4120676000002277;2533
401;1.4153062000004866;2533
402;1.4182930999995733;2533
403;1.4212518999993335;2534
404;1.4242888999997376;2534
405;1.4270116000006965;2534
406;1.4303223000006255;2534
407;1.4332811000003858;2534
408;1.4363603000001604;2534
409;1.4392618000001676;2535
410;1.4422708000001876;2535
411;1.4453295999992406;2535
412;1.4482692999990832;2536
413;1.451099100000647;2536
414;1.4540732999994361;2536
415;1.4570731000003434;2537
416;1.4600898999997298;2537
417;1.4636635000006208;2537
418;1.4672706000001199;2538
419;1.4706829999995534;2538
420;1.4746606000007887;2539
421;1.4786796999997023;2540
422;1.4826637000005576;2540
423;1.4856679000004078;2541
424;1.4896052999993117;2541
425;1.493615299999874;2542
426;1.4971184999994875;2542
427;1.500527599999259;2543
428;1.5035523999995348;2542
429;1.5076281999990897;2543
430;1.51162099999965;2543
431;1.5145592999997461;2543
432;1.5185498999999254;2544
433;1.5226081999990129;2544
434;1.5266389999997045;2544
435;1.530547899999874;2544
436;1.5341802000002644;2545
437;1.5376056999994034;2545
438;1.5416330999996717;2545
439;1.5455813000007765;2545
440;1.5496366999996098;2545
441;1.55254480000076;2545
442;1.5566328999993857;2545
443;1.5602328999993915;2545
444;1.56355799999983;2545
445;1.5671992000006867;2545
446;1.5705617000003258;2545
447;1.574607599999581;2545
448;1.577389599999151;2546
449;1.5816431000002922;2546
450;1.585575200000676;2546
451;1.5896334999997634;2547
452;1.5936234000000695;2547
453;1.5976381000000401;2547
454;1.601191600000675;2547
455;1.60455120000006;2547
456;1.607045200000357;2547
457;1.6105654999992112;2547
458;1.6146298999992723;2547
459;1.6185554000003322;2546
460;1.6225766999996267;2547
461;1.6266283000004478;2546
462;1.6306299999996554;2547
463;1.6341838000007556;2548
464;1.6386614999992162;2548
465;1.6415512000003218;2547
466;1.6456431999995402;2547
467;1.6497686999991856;2547
468;1.6520483999993303;2547
469;1.6550545999998576;2547
470;1.6579934999990655;2546
471;1.660097300000416;2546
472;1.6633442000002105;2546
473;1.666316499999084;2546
474;1.6691403000004357;2546
475;1.6723339000000124;2546
476;1.675311099999817;2546
477;1.6783254000001762;2546
478;1.6813172999991366;2546
479;1.6840558000003512;2546
480;1.6873868999991828;2546
481;1.6902893999995285;2546
482;1.6932959999994637;2545
483;1.696646000000328;2545
484;1.700318299999708;2545
485;1.7032034999992902;2545
486;1.7063854000007268;2544
487;1.7093807999990531;2545
488;1.7134358000002976;2545
489;1.7162900999992416;2545
490;1.7190852999992785;2545
491;1.72202389999984;2545
492;1.7251181999999972;2545
493;1.728540599999178;2545
494;1.7326362999992853;2545
495;1.735157999999501;2545
496;1.7380355999994208;2545
497;1.7411128000003373;2544
498;1.7439957999995386;2544
499;1.745978599999944;2544
500;1.7492941000000428;2544
501;1.7521725999995397;2544
502;1.7550547999999253;2544
503;1.7585096000002522;2544
504;1.763102799999615;2544
505;1.7674499999993714;2544
506;1.7717124999999214;2544
507;1.775934100000086;2544
508;1.779788499999995;2544
509;1.7838465000004362;2544
510;1.7873245999999199;2543
511;1.790487000000212;2543
512;1.7934975000007398;2543
513;1.7963705999991362;2543
514;1.79941990000043;2543
515;1.802018300000782;2543
516;1.8050810000004276;2542
517;1.8081406999990577;2542
518;1.8116126999993867;2542
519;1.8156373999991047;2542
520;1.8192070000004605;2542
521;1.8220860000001267;2541
522;1.825302900000679;2542
523;1.8285787999993772;2542
524;1.8326498000005813;2542
525;1.8351982000003773;2542
526;1.8386135999990074;2541
527;1.8422776000006706;2541
528;1.8462791000001744;2541
529;1.8493715000004158;2541
530;1.8520649999991292;2540
531;1.855421500000375;2540
532;1.8583964999997988;2539
533;1.8614400999995269;2539
534;1.8644330000006448;2538
535;1.8671405999994022;2538
536;1.8705895999992208;2538
537;1.8746432999996614;2538
538;1.8786426999995456;2538
539;1.8826310999993439;2538
540;1.8856013000004168;2538
541;1.8896310000000085;2538
542;1.8936704999996437;2538
543;1.8976824000001216;2538
544;1.9011864000003698;2537
545;1.9056612000003952;2536
546;1.9096601999990526;2536
547;1.9136844999993627;2535
548;1.916619499999797;2535
549;1.9195861000007426;2535
550;1.9236794000007649;2535
551;1.9276030999990326;2534
552;1.931580500000564;2534
553;1.9340742000003956;2534
554;1.937387399999352;2534
555;1.9403918000007252;2533
556;1.9433693999999377;2534
557;1.9464107999992848;2534
558;1.9493624999995518;2533
559;1.9523589000000356;2533
560;1.9552982000004704;2532
561;1.9583206999996037;2532
562;1.9616829999995389;2532
563;1.9651991999999154;2531
564;1.968124999999418;2531
565;1.9713474000000133;2531
566;1.9743211000004521;2531
567;1.9773442999994586;2531
568;1.9803661999994802;2531
569;1.9830127000004723;2530
570;1.9851541999996698;2531
571;1.9881316999999399;2530
572;1.9900992999992013;2530
573;1.9931288000007044;2530
574;1.9961507999996684;2530
575;1.9992411000002903;2530
576;2.00207219999902;2530
577;2.005316299999322;2530
578;2.008349100000487;2529
579;2.01134330000059;2529
580;2.014084799999182;2528
581;2.0170515999998315;2528
582;2.020620900000722;2528
583;2.0252017000002525;2527
584;2.0303368999993836;2527
585;2.0346341999993456;2526
586;2.0390989999996236;2526
587;2.044221500000276;2526
588;2.0486829000001308;2526
589;2.0526499999996304;2526
590;2.0569675999995525;2525
591;2.0608759000006103;2524
592;2.064860000000408;2524
593;2.0683585000006133;2524
594;2.071811699999671;2523
595;2.0755262000002404;2523
596;2.0782806999995955;2522
597;2.0814821999993;2522
598;2.0854787999996915;2522
599;2.0884790000000066;2522
600;2.0914668000004895;2521
601;2.094493999999031;2521
602;2.097493100000065;2520
603;2.1012530000007246;2520
604;2.1044648999995843;2520
605;2.1074747999991814;2520
606;2.110345299999608;2519
607;2.1134822000003624;2519
608;2.1164398999990226;2518
609;2.119471699999849;2517
610;2.122477400000207;2517
611;2.125470099999802;2516
612;2.128444500000114;2516
613;2.131474399999206;2515
614;2.1342612999997073;2515
615;2.1374675999995816;2515
616;2.14049519999935;2515
617;2.144489300000714;2514
618;2.148483099999794;2513
619;2.151293799999621;2512
620;2.1544945999994525;2512
621;2.1572773000007146;2511
622;2.161468000000241;2511
623;2.164467099999456;2511
624;2.167269800000213;2510
625;2.170479599999453;2510
626;2.1744822999989992;2509
627;2.1784728999991785;2508
628;2.18146969999907;2507
629;2.184286100000463;2506
630;2.187193699999625;2506
631;2.1904725000003964;2506
632;2.1944714000001113;2506
633;2.1974649999992835;2506
634;2.2012598000001162;2505
635;2.20418939999945;2504
636;2.207383299999492;2503
637;2.2103552000007767;2502
638;2.21336379999957;2502
639;2.216346799999883;2501
640;2.219358700000157;2501
641;2.222377800000686;2501
642;2.22536079999918;2500
643;2.2283822999997938;2500
644;2.231354499999725;2499
645;2.2342000999997254;2498
646;2.2373623000003136;2498
647;2.2403377999999066;2497
648;2.243272399999114;2496
649;2.2462109999996756;2496
650;2.2491427999993903;2495
651;2.2514424999990297;2495
652;2.254508399999395;2495
653;2.257326099999773;2494
654;2.2603237999992416;2493
655;2.26319599999988;2493
656;2.2661325999997644;2492
657;2.268974299999172;2491
658;2.2710244999998395;2490
659;2.2742259000006015;2490
660;2.2772518999991007;2490
661;2.280484200000501;2489
662;2.284581800000524;2488
663;2.288736799999242;2487
664;2.292651100000512;2486
665;2.2964269000003696;2485
666;2.2994206999992457;2485
667;2.3021857000003365;2484
668;2.3050624999996217;2484
669;2.3082221999993635;2483
670;2.3111427999992884;2482
671;2.313108000000284;2482
672;2.316109100000176;2482
673;2.318230000000767;2481
674;2.3215283999998064;2480
675;2.325502800000322;2480
676;2.328483299999789;2479
677;2.332378200000676;2478
678;2.3354252999997698;2477
679;2.3383942999989813;2477
680;2.341427699999258;2476
681;2.345151400000759;2476
682;2.348028799999156;2475
683;2.351158999999825;2475
684;2.353911000000153;2474
685;2.3561767999999574;2474
686;2.3592102999991766;2473
687;2.362199099999998;2473
688;2.365427099999579;2472
689;2.3696299999992334;2471
690;2.373664299999291;2471
691;2.3776527999998507;2470
692;2.3818453999992926;2469
693;2.3856634000003396;2468
694;2.390808599999218;2467
695;2.394421799999691;2465
696;2.3972020000001066;2464
697;2.400264199999583;2464
698;2.403719899999487;2463
699;2.4077228999994986;2462
700;2.4117435999996815;2462
701;2.4157276999994792;2460
702;2.418158200000107;2459
703;2.4216199000002234;2458
704;2.425671400000283;2457
705;2.429368600000089;2456
706;2.432677999999214;2455
707;2.4351581999999325;2455
708;2.4381410000005417;2454
709;2.4415869999993447;2453
710;2.4456695999997464;2452
711;2.4493253999989975;2451
712;2.452606000000742;2450
713;2.456669499999407;2449
714;2.460553799999616;2448
715;2.4647007000003214;2447
716;2.4671140999998897;2447
717;2.4704414999996516;2446
718;2.474258000000191;2445
719;2.4774524999993446;2444
720;2.481146699999954;2443
