;time;amplitude
0;0.003817400000116322;2382
1;0.007535999999163323;2382
2;0.011444800000390387;2382
3;0.014472200000454905;2383
4;0.017883299999084556;2383
5;0.021924700000454322;2383
6;0.025625500000387547;2383
7;0.028373999999530497;2384
8;0.03136799999992945;2384
9;0.03433690000019851;2384
10;0.03761739999936253;2384
11;0.04138989999955811;2384
12;0.044892500000059954;2385
13;0.048874899999646004;2386
14;0.052361000000018976;2386
15;0.055298699999184464;2386
16;0.05829939999966882;2386
17;0.06134600000041246;2386
18;0.06438370000068971;2387
19;0.06728470000052766;2387
20;0.07035890000042855;2387
21;0.07334789999913482;2387
22;0.07639000000017404;2387
23;0.07932799999980489;2388
24;0.08236620000025141;2388
25;0.08529210000051535;2388
26;0.08831160000045202;2389
27;0.091350999999122;2389
28;0.09432569999989937;2390
29;0.09731090000059339;2390
30;0.10033499999917694;2390
31;0.1033568999991985;2391
32;0.10629259999950591;2391
33;0.10926800000015646;2392
34;0.1122362999994948;2392
35;0.11524230000031821;2392
36;0.1182011999990209;2392
37;0.12122909999925469;2392
38;0.12428259999978764;2393
39;0.1271894000001339;2394
40;0.13080269999954908;2394
41;0.13479499999994005;2394
42;0.13876770000024408;2395
43;0.14124769999943965;2395
44;0.14517949999935809;2396
45;0.14865060000011;2397
46;0.15159999999923457;2397
47;0.15460739999980433;2398
48;0.1571540000004461;2398
49;0.15935739999986254;2399
50;0.16230679999898712;2399
51;0.16531140000006417;2400
52;0.16834840000046825;2400
53;0.17131379999955243;2401
54;0.17454559999896446;2402
55;0.17745560000003024;2402
56;0.18045270000038727;2403
57;0.18332030000055966;2403
58;0.18610489999991842;2403
59;0.18907799999942654;2405
60;0.19111879999945813;2406
61;0.19302349999998114;2406
62;0.19537959999979648;2406
63;0.1982215999996697;2407
64;0.2001431999997294;2408
65;0.2021334000000934;2408
66;0.2041862999994919;2409
67;0.2060786999991251;2409
68;0.20822210000005725;2410
69;0.21010629999909725;2410
70;0.2131638999999268;2411
71;0.2161603999993531;2411
72;0.21816500000022643;2412
73;0.22016599999915343;2412
74;0.22217149999960384;2413
75;0.22522089999984019;2414
76;0.22711039999921923;2414
77;0.23025219999908586;2415
78;0.23244680000061635;2415
79;0.23545829999966372;2416
80;0.23809860000073968;2416
81;0.24121799999920768;2417
82;0.24428959999931976;2418
83;0.24726809999992838;2418
84;0.2503042000007554;2419
85;0.2532766000003903;2419
86;0.2562785999998596;2420
87;0.2591711999994004;2421
88;0.2610669000005146;2421
89;0.26322629999958735;2421
90;0.2651934000004985;2421
91;0.2682088000001386;2422
92;0.27020119999906456;2423
93;0.2730446000005031;2423
94;0.2752490000002581;2423
95;0.27832069999931264;2423
96;0.28116720000070927;2424
97;0.28316260000065085;2424
98;0.2851303999996162;2424
99;0.2872012999996514;2425
100;0.2891204999996262;2425
101;0.2922333000005892;2426
102;0.29417470000043977;2426
103;0.29613749999953143;2426
104;0.29921850000027916;2426
105;0.30114770000000135;2427
106;0.30314309999994293;2428
107;0.306072999999742;2428
108;0.3082376000002114;2428
109;0.31121750000056636;2429
110;0.3131680000005872;2429
111;0.3161433000004763;2430
112;0.3192223999994894;2430
113;0.32112769999912416;2431
114;0.32423000000017055;2431
115;0.326169399999344;2432
116;0.3281442000006791;2432
117;0.33121849999952246;2433
118;0.3331433000003017;2433
119;0.33622189999914553;2433
120;0.3381281999991188;2434
121;0.34121000000050117;2435
122;0.34419569999954547;2435
123;0.34612190000007104;2436
124;0.34919280000030994;2437
125;0.3510595000007015;2438
126;0.3531779999993887;2438
127;0.3551884999997128;2439
128;0.3570682999998098;2439
129;0.3591792000006535;2440
130;0.36113800000021;2440
131;0.36422700000002806;2441
132;0.36614879999979166;2442
133;0.36921780000011495;2442
134;0.3711435999994137;2443
135;0.37306189999981143;2443
136;0.37519629999951576;2443
137;0.37720529999933206;2444
138;0.3802240000004531;2445
139;0.38213419999920006;2445
140;0.3841391999994812;2446
141;0.3872076999996352;2446
142;0.38902559999951336;2447
143;0.3911036999998032;2447
144;0.393074899999192;2448
145;0.3952050000007148;2449
146;0.39715459999933955;2449
147;0.3991728000000876;2449
148;0.401145899999392;2450
149;0.40312660000017786;2450
150;0.4052384999995411;2451
151;0.4073616999994556;2451
152;0.4100502000001143;2452
153;0.41211699999985285;2452
154;0.4152431999991677;2452
155;0.41831699999966077;2453
156;0.4212989000006928;2454
157;0.4241645000001881;2454
158;0.4261984000004304;2454
159;0.4281866999990598;2455
160;0.4301912999999331;2455
161;0.43215219999910914;2456
162;0.43419969999922614;2456
163;0.43706360000032873;2456
164;0.4400814000000537;2457
165;0.44202450000011595;2457
166;0.4440477000007377;2458
167;0.446039299999029;2458
168;0.448243700000603;2459
169;0.4500363000006473;2459
170;0.45223599999917496;2459
171;0.4552299999995739;2459
172;0.4582425999997213;2459
173;0.4612541999995301;2460
174;0.46458569999958854;2460
175;0.46741470000051777;2460
176;0.4703343000001041;2461
177;0.4729757000004611;2461
178;0.4751400000004651;2462
179;0.4770699999990029;2462
180;0.4805844000002253;2462
181;0.48343109999950684;2463
182;0.48640899999918474;2463
183;0.4891910000005737;2464
184;0.491270299999087;2464
185;0.4943127000005916;2464
186;0.4973377000005712;2465
187;0.5003197000005457;2465
188;0.5033272000000579;2465
189;0.5065512000001036;2465
190;0.5094649999991816;2466
191;0.5123447999994823;2466
192;0.5153317000003881;2466
193;0.5182994000006147;2467
194;0.5213275000005524;2467
195;0.5244332999991457;2467
196;0.5273813999992853;2468
197;0.5303590999992593;2469
198;0.533375499999238;2468
199;0.5363846000000194;2469
200;0.539390199999616;2469
201;0.5424044999999751;2469
202;0.5454644999990705;2469
203;0.5484178000006068;2469
204;0.551527100000385;2469
205;0.5544792000000598;2469
206;0.5571669999990263;2469
207;0.5603413999997429;2468
208;0.5633727999993425;2468
209;0.5666911999996955;2469
210;0.5706742000002123;2469
211;0.5746717999991233;2469
212;0.578507799998988;2469
213;0.5814589000001433;2469
214;0.5842713000001822;2469
215;0.587249399999564;2469
216;0.5901960999999574;2468
217;0.5932936999997764;2468
218;0.5963049000001774;2468
219;0.59929000000011;2468
220;0.6022911999989446;2468
221;0.6052610999995522;2468
222;0.6088431999996828;2468
223;0.6127109999997629;2468
224;0.616741899999397;2468
225;0.6207555999990291;2469
226;0.6231487000004563;2468
227;0.6263058000004094;2468
228;0.62938369999938;2469
229;0.6323816999993142;2468
230;0.6355020999999397;2468
231;0.638501699999324;2468
232;0.6415182000000641;2468
233;0.644500500000504;2469
234;0.6474892000005639;2468
235;0.65049050000016;2468
236;0.6531716999998025;2468
237;0.6564314999995986;2467
238;0.6595120999991195;2467
239;0.6624926000004052;2467
240;0.6654923999994935;2467
241;0.6681544000002759;2466
242;0.6715019999992364;2466
243;0.6744844000004377;2466
244;0.6774590999993961;2466
245;0.6804725000001781;2465
246;0.6834588999990956;2465
247;0.6862884999991365;2464
248;0.6893758999995043;2464
249;0.6924935999995796;2463
250;0.6952956999994058;2463
251;0.6982912000003125;2463
252;0.7011296999990009;2462
253;0.7031028999990667;2462
254;0.7051592999996501;2462
255;0.7070862000000488;2461
256;0.7101493999998638;2461
257;0.7120274999997491;2461
258;0.7141353999995772;2460
259;0.7161347999990539;2460
260;0.7181135999999242;2459
261;0.7200766000005387;2459
262;0.7221690000005765;2459
263;0.7242377000002307;2459
264;0.7271524999996473;2459
265;0.729079400000046;2458
266;0.7309733999991295;2458
267;0.7329909000000043;2458
268;0.7349603999991814;2457
269;0.7370243999994273;2457
270;0.7390035999997053;2457
271;0.7409958999996888;2457
272;0.7431784999989759;2456
273;0.7451655000004394;2456
274;0.7471392000006745;2456
275;0.7491386999990937;2455
276;0.7511764999999286;2455
277;0.7531369000007544;2455
278;0.7551299000006111;2454
279;0.7570371000001614;2454
280;0.760262399999192;2454
281;0.7641077999996924;2453
282;0.7689081999997143;2452
283;0.7727169999998296;2452
284;0.7772812999992311;2451
285;0.7806572999998025;2450
286;0.7849712000006548;2449
287;0.7889549999999872;2448
288;0.7923661000004358;2448
289;0.795324000000619;2447
290;0.7983230999998341;2446
291;0.8013283999989653;2445
292;0.8042719000004581;2445
293;0.8070637000000715;2445
294;0.8090883999993821;2444
295;0.8112148000000161;2444
296;0.8141754000007495;2443
297;0.8177276999995229;2442
298;0.8214379000000918;2441
299;0.8258425999993051;2441
300;0.829738799999177;2440
301;0.833261499999935;2439
302;0.8366138999990653;2439
303;0.8396265999999741;2438
304;0.8425215999995999;2437
305;0.8454877999993187;2436
306;0.848488499999803;2436
307;0.8514828999996098;2435
308;0.8555245000006835;2435
309;0.858475200000612;2434
310;0.8614703000002919;2434
311;0.8644733999990422;2433
312;0.8674315000007482;2432
313;0.8703614999994898;2432
314;0.8731267000002845;2432
315;0.8764673000005132;2431
316;0.8794739000004483;2430
317;0.8824743000004673;2430
318;0.8854663000001892;2429
319;0.8884682999996585;2429
320;0.891497900000104;2428
321;0.8944733000007545;2427
322;0.8974674999990384;2427
323;0.9001219000001583;2426
324;0.9031331999995018;2425
325;0.9051555000005465;2425
326;0.9073530000005121;2424
327;0.9104647999993176;2424
328;0.9134639999992942;2423
329;0.9165063999989798;2423
330;0.9192533999994339;2422
331;0.922381200000018;2421
332;0.9255032999990362;2421
333;0.9284618000001501;2420
334;0.9311701999995421;2420
335;0.934269299999869;2419
336;0.9374870999999985;2419
337;0.9401345000005676;2418
338;0.9434705000003305;2417
339;0.9464723999990383;2416
340;0.9494500999990123;2415
341;0.9524459999993269;2414
342;0.9554502999999386;2414
343;0.9584572999992815;2413
344;0.9614569000004849;2412
345;0.9643735999998171;2412
346;0.9674018999994587;2411
347;0.9703893000005337;2410
348;0.9731969000004028;2410
349;0.976483599999483;2409
350;0.9791846000007354;2408
351;0.9824582000001101;2408
352;0.9854608000005101;2407
353;0.988468899999134;2406
354;0.9914840000001277;2406
355;0.9942059999993944;2405
356;0.997265599999082;2405
357;1.0004007999996247;2404
358;1.0034310999999434;2403
359;1.0062023999998928;2403
360;1.0082791999993788;2402
361;1.0112016999992193;2402
362;1.0131846999993286;2401
363;1.0162089000004926;2401
364;1.0181876999995438;2400
365;1.0211426999994728;2400
366;1.0231308000002173;2400
367;1.0251380999998219;2399
368;1.027180999999473;2399
369;1.0291868999993312;2399
370;1.031202399999529;2398
371;1.0345433999991656;2398
372;1.038663400000587;2397
373;1.0431738999996014;2396
374;1.0468000000000757;2395
375;1.052359900000738;2395
376;1.0571218000004592;2394
377;1.0622490999994625;2393
378;1.0672586000000592;2392
379;1.0705777000002854;2391
380;1.0744023000006564;2391
381;1.077799499998946;2390
382;1.081745299999966;2390
383;1.0857345000003988;2389
384;1.089406400000371;2388
385;1.0926380999990215;2388
386;1.0967151000004378;2388
387;1.100651700000526;2387
388;1.1036356000004162;2386
389;1.1073840999997628;2386
390;1.110638199999812;2386
391;1.1147056999998313;2385
392;1.118701899998996;2385
393;1.1227433999993082;2385
394;1.1256403000006685;2384
395;1.12862320000022;2384
396;1.13162580000062;2384
397;1.134550599999784;2384
398;1.1376935000007506;2384
399;1.1417650999992475;2383
400;1.1457092999989982;2383
401;1.149700699999812;2383
402;1.1536916999993991;2382
403;1.1574000000000524;2382
404;1.1617167000003974;2381
405;1.1657080000004498;2381
406;1.169719100000293;2381
407;1.1734357999994245;2381
408;1.1777024999992136;2381
409;1.1817112999997335;2381
410;1.185703499999363;2380
411;1.1897640000006504;2380
412;1.1937025000006543;2380
413;1.1978390000003856;2380
414;1.201394399999117;2380
415;1.204205500000171;2380
416;1.2071054999996704;2380
417;1.2091297999995732;2380
418;1.211125899999388;2380
419;1.2130820999991556;2380
420;1.2162444000005053;2380
421;1.2181395000006887;2380
422;1.2201640999992378;2380
423;1.2221575999992638;2380
424;1.2243123000007472;2380
425;1.227161700000579;2381
426;1.2290377999997872;2381
427;1.2311611999994057;2381
428;1.233155899999474;2381
429;1.2351799000007304;2381
430;1.2371526999995694;2381
431;1.2391528999996808;2381
432;1.2412318999995477;2382
433;1.2430564000005688;2382
434;1.245090500000515;2382
435;1.2471083000000363;2382
436;1.2491479000000254;2382
437;1.2526441999998497;2382
438;1.2556217000001197;2382
439;1.2581852000002982;2382
440;1.2603180999994947;2382
441;1.2633681999996043;2382
442;1.266366100000596;2382
443;1.2692772999998851;2382
444;1.2722651999993104;2383
445;1.274595799999588;2383
446;1.277552100000321;2383
447;1.2803265999991709;2384
448;1.2836150999992242;2384
449;1.2864104000000225;2384
450;1.289523299999928;2384
451;1.2921638999996503;2385
452;1.2941757999997208;2385
453;1.296158999999534;2385
454;1.299344499999279;2385
455;1.3023157999996329;2385
456;1.30534710000029;2385
457;1.3086781000001793;2385
458;1.3115603999995074;2385
459;1.3156474999996135;2386
460;1.3185747999996238;2386
461;1.3215815000003204;2387
462;1.3245704999990267;2387
463;1.327430400000594;2388
464;1.3304269999989629;2388
465;1.3335291999992478;2389
466;1.3376158999999461;2389
467;1.340161199999784;2389
468;1.343102099999669;2389
469;1.345113699999274;2389
470;1.3470830000005662;2390
471;1.3491400999992038;2390
472;1.351226000000679;2390
473;1.3541676000004372;2391
474;1.3561279000005015;2391
475;1.3583032000005915;2391
476;1.36121490000005;2391
477;1.3631925999998202;2392
478;1.365161600000647;2392
479;1.3671599999997852;2393
480;1.370122899999842;2394
481;1.373241199999029;2394
482;1.376181199999337;2394
483;1.3782107000006363;2395
484;1.3801590999992186;2395
485;1.383227899999838;2395
486;1.3862461999997322;2396
487;1.389782300000661;2396
488;1.392731100000674;2397
489;1.3967443999990792;2397
490;1.4007574999995995;2398
491;1.4031365999999252;2398
492;1.4063530999992508;2398
493;1.4093733999998221;2399
494;1.4123032999996212;2399
495;1.4153368999996019;2400
496;1.4181958999997732;2401
497;1.4213500000005297;2401
498;1.4247138999999152;2401
499;1.428724899998997;2402
500;1.4327522000003228;2402
501;1.4367741999994905;2403
502;1.440353399999367;2404
503;1.4437094000004436;2404
504;1.4466857999996137;2405
505;1.4496880000006058;2405
506;1.4527123000007123;2406
507;1.4562014000002819;2407
508;1.4595114000003377;2407
509;1.4624803000006068;2408
510;1.465445499999987;2409
511;1.4684674000000086;2410
512;1.4711575000001176;2410
513;1.4731597999998485;2410
514;1.4765074999995704;2411
515;1.4795097000005626;2412
516;1.4825043000000733;2413
517;1.4855186999993748;2414
518;1.4885310999998183;2414
519;1.4915639999999257;2415
520;1.494472099999257;2416
521;1.4975054000005912;2417
522;1.5004996999996365;2417
523;1.503473999999187;2418
524;1.5061848999994254;2419
525;1.5095426999996562;2420
526;1.5125081000005594;2420
527;1.5155035999996471;2421
528;1.5185074000000895;2422
529;1.5215155000005325;2423
530;1.524524399999791;2423
531;1.527503400000569;2424
532;1.53051349999987;2425
533;1.5335089999989577;2426
534;1.5365301999991061;2426
535;1.5392097999992984;2427
536;1.5422796000002563;2427
537;1.5443543999990652;2428
538;1.5472532000003412;2428
539;1.54916779999985;2429
540;1.5512180000005173;2429
541;1.5531553000000713;2429
542;1.5551500999990822;2430
543;1.5571629999994911;2430
544;1.5591860999993514;2431
545;1.5611793999996735;2431
546;1.563180499999362;2431
547;1.5664987999989535;2432
548;1.5695405000005849;2433
549;1.5725175000006857;2434
550;1.5753922999992938;2434
551;1.5783424000001105;2435
552;1.581395799999882;2435
553;1.5843098999994254;2436
554;1.5873147000002064;2437
555;1.5902253000003839;2438
556;1.5934703000002628;2438
557;1.5964813999999024;2439
558;1.5998343999999634;2440
559;1.6036096999996516;2440
560;1.606254700000136;2440
561;1.6090948000000935;2441
562;1.6110797000001185;2442
563;1.613079299999299;2442
564;1.6151890000001004;2443
565;1.6170700999991823;2443
566;1.6204404000000068;2444
567;1.6222047999999631;2445
568;1.6240500000003522;2445
569;1.6260363000001234;2446
570;1.6283005999994202;2446
571;1.6314918999996735;2446
572;1.6344614999998157;2447
573;1.6374931999998807;2448
574;1.6401466000006621;2448
575;1.6443863000004058;2449
576;1.6473380000006728;2450
577;1.6503396000007342;2451
578;1.6532564999997703;2452
579;1.6561517999998614;2452
580;1.658114599998953;2452
581;1.6600601999998617;2453
582;1.662193500000285;2453
583;1.6652916999992158;2454
584;1.6682426000006672;2454
585;1.6702064000000973;2455
586;1.6721524000004138;2455
587;1.6744347999992897;2456
588;1.6775278000004619;2456
589;1.6802093999995122;2456
590;1.6822002999997494;2457
591;1.6841896999994788;2457
592;1.6861346000005142;2458
593;1.6881909000003361;2458
594;1.690179299999727;2458
595;1.6921351000000868;2458
596;1.694248300000254;2459
597;1.6961331999991671;2459
598;1.6981832000001305;2459
599;1.7014627999997174;2459
600;1.7044303999991826;2460
601;1.7071890999995958;2461
602;1.7102240999993228;2461
603;1.7133032999990974;2461
604;1.716716599999927;2462
605;1.7193200000001525;2462
606;1.7224401999992551;2463
607;1.7253782999996474;2462
608;1.7282926000007137;2463
609;1.7313444999999774;2463
610;1.7343927999991138;2463
611;1.73734610000065;2464
612;1.7404089999999997;2465
613;1.7434721999998146;2465
614;1.7461980000007316;2465
615;1.7481747999991057;2466
616;1.7501787999990484;2466
617;1.752173099999709;2467
618;1.7541920000003302;2467
619;1.756128600000011;2467
620;1.75918719999936;2467
621;1.7612687999990158;2467
622;1.7637814999998227;2468
623;1.7678070000001753;2468
624;1.771689499999411;2468
625;1.774260799998956;2468
626;1.7764282999996794;2468
627;1.7791063000004215;2469
628;1.781083399999261;2469
629;1.783228300000701;2468
630;1.7851903999999195;2469
631;1.7871878000005381;2469
632;1.7900786999998672;2469
633;1.7921184999995603;2469
634;1.7942483999995602;2469
635;1.7962146999998367;2469
636;1.7982176999994408;2469
637;1.8002125000002707;2470
638;1.8021948000005068;2470
639;1.8041905999998562;2470
640;1.8061127000000852;2470
641;1.8083451999991667;2470
642;1.8112688000001071;2470
643;1.8133811999996396;2470
644;1.8163471999996545;2470
645;1.8192932000001747;2470
646;1.8222822000007;2470
647;1.8242902000001777;2470
648;1.827300999999352;2469
649;1.8303018000005977;2470
650;1.833772100000715;2470
651;1.837754700000005;2470
652;1.8411677000003692;2469
653;1.844681099999434;2469
654;1.8476293000003352;2469
655;1.8504690999998274;2469
656;1.8534615999997186;2469
657;1.856285800000478;2469
658;1.8592263999998977;2469
659;1.8623573000004399;2469
660;1.865352900000289;2469
661;1.8682719999997062;2469
662;1.8711879000002227;2468
663;1.873280199999499;2468
664;1.8763928999997006;2468
665;1.8795367999991868;2468
666;1.8832724999992934;2467
667;1.88615579999896;2467
668;1.8893119000003935;2467
669;1.8910672000001796;2467
670;1.893210199999885;2466
671;1.896258000000671;2466
672;1.8982166000005236;2466
673;1.9001924999993207;2466
674;1.9022088000001531;2466
675;1.9041981999998825;2466
676;1.906156799999735;2466
677;1.908381699999154;2466
678;1.9111933000003773;2466
679;1.9132420000005368;2466
680;1.9152052999997977;2466
681;1.9172091000000364;2466
682;1.9191933000001882;2466
683;1.92119029999958;2465
684;1.9232358999997814;2465
685;1.9262204000006022;2465
686;1.9281874999996944;2465
687;1.9300619999994524;2464
688;1.93212130000029;2464
689;1.9342625999997836;2464
690;1.9375491999999213;2464
691;1.940272300000288;2464
692;1.9434132000005775;2464
693;1.9461967999995977;2464
694;1.948479499998939;2463
695;1.9512333999991824;2463
696;1.9532142000007298;2463
697;1.9552110999993602;2463
698;1.9574121000005107;2463
699;1.9603172999995877;2462
700;1.963339599999017;2462
701;1.9663036999991164;2462
702;1.9693492999995215;2461
703;1.9723252000003413;2461
704;1.9755237999997917;2460
705;1.9785188999994716;2459
706;1.981520499999533;2459
707;1.984516700000313;2458
708;1.9875171999992745;2457
709;1.9914158999999927;2457
710;1.994527000000744;2457
711;1.9975207000006776;2456
712;2.0005185999998503;2456
713;2.0035210000005463;2456
714;2.0061733000002278;2455
715;2.009520800000246;2455
716;2.0125334999993356;2454
717;2.0155173999992257;2454
