;time;amplitude
0;0.004143599999224534;2412
1;0.007990000000063446;2413
2;0.011937999999645399;2414
3;0.017363900000418653;2414
4;0.022020999998858315;2415
5;0.02594890000000305;2416
6;0.03000129999963974;2416
7;0.03395219999947585;2417
8;0.03813780000018596;2417
9;0.04166149999946356;2418
10;0.044856099999378785;2419
11;0.049116799998955685;2419
12;0.05311069999879692;2420
13;0.05641949999881035;2420
14;0.059450099999594386;2420
15;0.06243539999923087;2421
16;0.06542259999878297;2422
17;0.07004939999933413;2423
18;0.07400710000001709;2423
19;0.078043899999102;2424
20;0.08199969999986934;2424
21;0.08604439999908209;2425
22;0.09054479999940668;2425
23;0.09389530000044033;2426
24;0.09798349999982747;2427
25;0.10196170000017446;2427
26;0.10477679999894463;2428
27;0.1089479999991454;2429
28;0.11294920000000275;2430
29;0.1169393999989552;2430
30;0.12096889999884297;2431
31;0.123894599999403;2431
32;0.12799059999997553;2431
33;0.13195699999960198;2432
34;0.1355039999998553;2433
35;0.13848030000008293;2434
36;0.14194159999897238;2434
37;0.14599029999953927;2435
38;0.1499923999999737;2435
39;0.15340819999983069;2435
40;0.15647510000053444;2435
41;0.1599449999994249;2436
42;0.16393629999947734;2437
43;0.16806569999971543;2437
44;0.17148599999927683;2437
45;0.1749048000001494;2438
46;0.17890989999978046;2438
47;0.18291630000021541;2439
48;0.18691559999933816;2439
49;0.18974539999908302;2439
50;0.1937887000003684;2440
51;0.19781419999890204;2441
52;0.20176119999996445;2442
53;0.2067341000001761;2442
54;0.20990809999966586;2442
55;0.21397839999917778;2443
56;0.21793959999922663;2444
57;0.22146780000002764;2444
58;0.22444939999877533;2445
59;0.22792929999923217;2445
60;0.23196599999937462;2446
61;0.23598859999947308;2446
62;0.23953099999926053;2446
63;0.2428089999993972;2447
64;0.24676849999923434;2447
65;0.2499571999996988;2448
66;0.25393959999928484;2448
67;0.2565322999998898;2448
68;0.2607324000000517;2449
69;0.2635546000001341;2449
70;0.2665600000000268;2449
71;0.2696531999990839;2449
72;0.27263630000015837;2449
73;0.2759155000003375;2449
74;0.27994589999980235;2450
75;0.2839397999996436;2450
76;0.2875781000002462;2450
77;0.2909130999996705;2450
78;0.2949416999999812;2450
79;0.29894899999999325;2450
80;0.3029077999999572;2450
81;0.306970800000272;2450
82;0.31098759999986214;2450
83;0.31497639999906824;2450
84;0.3186329999989539;2450
85;0.32276920000003884;2451
86;0.3269553999998607;2451
87;0.3309661999992386;2451
88;0.33460480000030657;2450
89;0.33858299999883457;2450
90;0.3418910999989748;2450
91;0.34469910000007076;2451
92;0.34770690000004834;2450
93;0.3520147999988694;2450
94;0.35550399999920046;2450
95;0.35872139999992214;2450
96;0.36299159999907715;2450
97;0.3665664000000106;2449
98;0.36970259999907285;2449
99;0.3740037999996275;2449
100;0.3779914999995526;2450
101;0.3816167000004498;2450
102;0.3859757999998692;2449
103;0.3899528999991162;2449
104;0.3939484000002267;2449
105;0.3975369999989198;2449
106;0.4009255999990273;2449
107;0.40476899999885063;2449
108;0.40792379999948025;2449
109;0.4119938000003458;2448
110;0.41596649999883084;2448
111;0.4199418999996851;2448
112;0.42270989999997255;2448
113;0.42572259999906237;2448
114;0.42850480000015523;2448
115;0.431674399998883;2448
116;0.43467640000017127;2447
117;0.4376778000005288;2447
118;0.4406595999989804;2447
119;0.4436573999992106;2447
120;0.4466549999997369;2446
121;0.4496612999992067;2446
122;0.45267039999998815;2446
123;0.4556574999987788;2445
124;0.45866319999913685;2445
125;0.46165929999915534;2444
126;0.46467130000019097;2444
127;0.46765509999931965;2444
128;0.4706691999999748;2443
129;0.4736622999989777;2443
130;0.47665190000043367;2442
131;0.4796619999997347;2442
132;0.48266770000009274;2442
133;0.4856694999998581;2441
134;0.4883802000003925;2441
135;0.4916558000004443;2441
136;0.4946583000000828;2441
137;0.4974824000000808;2440
138;0.5006615999991482;2440
139;0.5036586999995052;2439
140;0.5064244999994116;2439
141;0.5096421999987797;2438
142;0.5136385999994673;2438
143;0.5176324999993085;2438
144;0.5206405999997514;2437
145;0.5236297999999806;2437
146;0.5266384999995353;2437
147;0.5296416000001045;2437
148;0.5326494999990246;2436
149;0.5366391999996267;2436
150;0.5396600000003673;2435
151;0.5426398999989033;2435
152;0.545643100000234;2435
153;0.5486671999988175;2435
154;0.5515195999996649;2434
155;0.5544195000002219;2434
156;0.557633899999928;2434
157;0.5606370000004972;2433
158;0.5636560000002646;2433
159;0.566637099998843;2432
160;0.5694034999996802;2432
161;0.5725564999993367;2432
162;0.5756411000002117;2431
163;0.5786337999998068;2431
164;0.58163710000008;2431
165;0.5845683999996254;2430
166;0.5876687999989372;2430
167;0.5906390000000101;2430
168;0.594666099999813;2429
169;0.5986415999996098;2428
170;0.6016397000003053;2428
171;0.6043685999993613;2427
172;0.6076420999997936;2427
173;0.610631800000192;2427
174;0.6136394000004657;2426
175;0.6165218999994977;2425
176;0.6196447999991506;2425
177;0.6226515999987896;2425
178;0.6256616999999096;2424
179;0.6286603999997169;2424
180;0.6314213000005111;2424
181;0.6343342000000121;2423
182;0.6373937999996997;2423
183;0.6406628000004275;2423
184;0.6436405000004015;2422
185;0.6466220000002068;2421
186;0.6494115999994392;2421
187;0.652360599999156;2420
188;0.6555148999996163;2420
189;0.6590096999989328;2419
190;0.6630126000000018;2418
191;0.6664774999990186;2417
192;0.6693460000005871;2417
193;0.673837000000276;2416
194;0.6777674000004481;2415
195;0.6818378999996639;2415
196;0.6858066999993753;2414
197;0.689581000000544;2414
198;0.6929357999997592;2413
199;0.6969697000004089;2412
200;0.7009490999989794;2412
201;0.7044585000003281;2411
202;0.7079216999991331;2410
203;0.7119483000005857;2410
204;0.7159391000004689;2410
205;0.7196346000000631;2410
206;0.7240002999988064;2409
207;0.7279453999999532;2409
208;0.7319595999997546;2408
209;0.7355724999997619;2408
210;0.7384846999993897;2407
211;0.7419205999995029;2407
212;0.745976399999563;2407
213;0.7499557999999524;2407
214;0.7534629999991012;2406
215;0.7567184999988967;2406
216;0.7599303999995755;2405
217;0.7639151000003039;2405
218;0.7680335999993986;2404
219;0.7716228999997838;2404
220;0.774574199998824;2404
221;0.7778151999991678;2404
222;0.7816949999996723;2403
223;0.784812800000509;2403
224;0.7885112000003573;2402
225;0.7920058999989124;2402
226;0.7960610999998607;2401
227;0.800065800000084;2401
228;0.8040671999988263;2401
229;0.8079672999992908;2401
230;0.8119523000004847;2401
231;0.8159634999992704;2400
232;0.8199239000005036;2400
233;0.8228108999992401;2400
234;0.8268924000003608;2400
235;0.8308113000002777;2400
236;0.835012800000186;2400
237;0.8384625999988202;2400
238;0.8419486000002507;2400
239;0.8459485999992467;2400
240;0.8500294999994367;2400
241;0.8541241000002628;2400
242;0.8579871999991155;2400
243;0.8619607000000542;2400
244;0.8659662999998545;2400
245;0.869520599999305;2400
246;0.8724586999996973;2400
247;0.8753077999990637;2400
248;0.8772836999996798;2400
249;0.8793066999987786;2400
250;0.881278699998802;2400
251;0.8833243999997649;2400
252;0.8853913000002649;2400
253;0.8873131000000285;2400
254;0.8893202999988716;2400
255;0.8912961999994877;2400
256;0.8936138999997638;2400
257;0.8966036000001623;2401
258;0.8996188999990409;2401
259;0.9025105999990046;2401
260;0.9056571000000986;2401
261;0.9086537000002863;2401
262;0.9116309999990335;2401
263;0.9143256999996083;2401
264;0.9176551999989897;2401
265;0.9206524000001082;2401
266;0.9236517999997886;2402
267;0.9266461999995954;2402
268;0.9294699000001856;2402
269;0.9326519000005646;2402
270;0.9356440999999904;2402
271;0.9386531999989529;2402
272;0.9416603999998188;2402
273;0.9446307999987766;2402
274;0.9476636999988841;2402
275;0.9506526000004669;2402
276;0.9536589999988792;2403
277;0.9566524000001664;2403
278;0.9596547999990435;2403
279;0.9625182999989192;2404
280;0.9656574000000546;2404
281;0.9686715999996522;2404
282;0.9713297999987844;2405
283;0.9746268999988388;2405
284;0.9774617999992188;2405
285;0.9804887999998755;2406
286;0.9836536999991949;2406
287;0.9866240999999718;2406
288;0.9896331999989343;2406
289;0.9924420999996073;2406
290;0.9956440000005387;2406
291;0.998638299999584;2407
292;1.0016410999996879;2407
293;1.0043229999992036;2408
294;1.0076294999998936;2408
295;1.010573999999906;2409
296;1.0136039999997593;2409
297;1.016602800000328;2410
298;1.019603200000347;2410
299;1.0226129999991826;2410
300;1.0256088999994972;2411
301;1.0286063000003196;2411
302;1.0316141000002972;2411
303;1.03460079999968;2412
304;1.0375886999991053;2412
305;1.040617700000439;2413
306;1.043617199999062;2413
307;1.0466331999996328;2414
308;1.0496146000004956;2414
309;1.05261309999878;2414
310;1.0553050999988045;2415
311;1.0586088999989443;2416
312;1.0616088999995554;2416
313;1.0646028999999544;2416
314;1.067603199999212;2417
315;1.0706303999995725;2417
316;1.073605800000223;2418
317;1.0766067000004114;2418
318;1.07961559999967;2418
319;1.0826144999991811;2419
320;1.0856036000004678;2419
321;1.0894630999991932;2420
322;1.0923456999989867;2420
323;1.0943723999989743;2420
324;1.0963898999998491;2421
325;1.0993207999999868;2421
326;1.1022561999998288;2422
327;1.105373899999904;2422
328;1.1083450000005541;2423
329;1.1102243999994243;2423
330;1.1123451000003115;2423
331;1.1143109999993612;2424
332;1.1162114999988262;2424
333;1.118196800000078;2424
334;1.1202992999988055;2425
335;1.1222478999989107;2425
336;1.1242799999999988;2425
337;1.126314099999945;2426
338;1.12826750000022;2426
339;1.130281300000206;2426
340;1.1322550000004412;2427
341;1.134173099999316;2427
342;1.136189099999683;2427
343;1.13828199999989;2428
344;1.1401605999999447;2428
345;1.1422172999991744;2428
346;1.144173700000465;2428
347;1.1462439999995695;2428
348;1.1482794000003196;2428
349;1.1501859999989392;2429
350;1.1523182000000816;2429
351;1.1554149000003235;2430
352;1.1573072999999567;2430
353;1.1591742999989947;2430
354;1.1612803999996686;2430
355;1.1632116999990103;2431
356;1.1652954000001046;2431
357;1.1682368999991013;2431
358;1.170197299999927;2431
359;1.1721741999990627;2432
360;1.174166700000569;2432
361;1.1761618000000453;2432
362;1.1781981000003725;2432
363;1.1802353999992192;2433
364;1.1822019999999611;2433
365;1.1840921000002709;2433
366;1.1861422999991191;2434
367;1.188246199999412;2434
368;1.190193399999771;2434
369;1.1921781999990344;2434
370;1.1942311999991944;2434
371;1.1962865999994392;2434
372;1.198181800000384;2435
373;1.200120199999219;2435
374;1.2021671999991668;2435
375;1.2041922999997041;2435
376;1.2062836999994033;2435
377;1.2082621999998082;2436
378;1.2113088000005519;2436
379;1.2133001000001968;2437
380;1.215354899999511;2437
381;1.2173187999997026;2437
382;1.2192749999994703;2438
383;1.2213513999995484;2438
384;1.224344000000201;2439
385;1.226307299999462;2439
386;1.2282868999991479;2439
387;1.2302282999989984;2440
388;1.2322299999996176;2440
389;1.2341983000005712;2440
390;1.2362524999989546;2440
391;1.2382641000003787;2440
392;1.2402738999990106;2441
393;1.24225689999912;2441
394;1.2442895999993198;2441
395;1.2462092000005214;2442
396;1.2481812999994872;2442
397;1.2501680999994278;2442
398;1.25223460000052;2442
399;1.2542147999993176;2443
400;1.256293899999946;2443
401;1.2582284000000072;2443
402;1.2601352999990922;2444
403;1.2623098000003665;2444
404;1.2642840999997134;2444
405;1.2672621000001527;2445
406;1.2702986000003875;2445
407;1.2722635999998602;2445
408;1.274293899999975;2446
409;1.276284499999747;2446
410;1.2782205999992584;2446
411;1.2802778999994189;2446
412;1.2822715999991487;2447
413;1.284225699999297;2446
414;1.2862444000002142;2447
415;1.2882066000001942;2447
416;1.290181099999245;2447
417;1.2922116999998252;2447
418;1.2941639999990002;2447
419;1.296143600000505;2447
420;1.2981636999993498;2447
421;1.3001578000003065;2448
422;1.3021508000001631;2448
423;1.3041314000001876;2448
424;1.3062066000002233;2449
425;1.3082030000005034;2449
426;1.3102034000003187;2449
427;1.3123171999995975;2449
428;1.3143104999999196;2449
429;1.3163150000000314;2449
430;1.3183062999996764;2449
431;1.3213245999995706;2449
432;1.3233147999999346;2450
433;1.325328900000386;2449
434;1.3272993999999017;2450
435;1.3290670000005775;2449
436;1.3310827000004792;2450
437;1.3330643999997847;2450
438;1.3350838999995176;2450
439;1.3371353000002273;2450
440;1.3390782000005856;2450
441;1.3413029999992432;2450
442;1.3430685000002995;2451
443;1.3450840999994398;2451
444;1.3470734999991691;2451
445;1.3490764999987732;2451
446;1.35107810000045;2451
447;1.3531019999991258;2451
448;1.3551377000003413;2451
449;1.3570662000001903;2451
450;1.3590949999997974;2451
451;1.361334799999895;2451
452;1.3633458000003884;2451
453;1.3653405000004568;2451
454;1.3673375999987911;2451
455;1.3693413000000874;2451
456;1.3712673999998515;2451
457;1.3733494999996765;2451
458;1.3753316999991512;2450
459;1.3773361000003206;2450
460;1.379329899998993;2450
461;1.3823410000004515;2450
462;1.3853428999991593;2450
463;1.3872826999995596;2450
464;1.389352099999087;2450
465;1.392362200000207;2450
466;1.3942907999989984;2450
467;1.3963363999991998;2450
468;1.3982598000002326;2450
469;1.4005861999994522;2450
470;1.403777399998944;2450
471;1.4067794000002323;2450
472;1.4097330999993574;2450
473;1.4126813000002585;2450
474;1.4156805999991775;2449
475;1.4186926999991556;2449
476;1.4214548999989347;2449
477;1.4246158999994805;2449
478;1.427615299999161;2449
479;1.4306159999996453;2449
480;1.4345766000005824;2449
481;1.437544500000513;2449
482;1.4406450999995286;2449
483;1.443634799999927;2449
484;1.4466345999990153;2449
485;1.4497176999993826;2450
486;1.4523410999991029;2449
487;1.454351599999427;2449
488;1.4576078999998572;2449
489;1.460596799999621;2449
490;1.463180900000225;2449
491;1.4665174999990995;2448
492;1.4695198999997956;2448
493;1.4725362999997742;2447
494;1.47553489999882;2447
495;1.4784853000001021;2447
496;1.48152619999928;2447
497;1.4845227000005252;2446
498;1.4874784000003274;2446
499;1.4905256000001827;2446
500;1.493523400000413;2445
501;1.4963265999995201;2445
502;1.4995182999991812;2445
503;1.5024799999991956;2444
504;1.5055054999993445;2444
505;1.50850249999894;2444
506;1.511528699998962;2443
507;1.514502399999401;2443
508;1.517511399999421;2443
509;1.5205195999988064;2442
510;1.523500100000092;2442
511;1.5264807000003202;2441
512;1.5294985999989876;2441
513;1.5325140999993891;2440
514;1.5355027000005066;2441
515;1.538524999999936;2440
516;1.541371799999979;2440
517;1.5445062999988295;2440
518;1.5475028999990172;2439
519;1.5504980000005162;2439
520;1.553507599999648;2439
521;1.556503399999201;2438
522;1.5594992999995156;2438
523;1.5625068999997893;2438
524;1.5654771999998047;2438
525;1.5685025000002497;2437
526;1.5713642999999138;2437
527;1.5743480000001;2436
528;1.5775073999993765;2436
529;1.5804979000004096;2436
530;1.583500599999752;2435
531;1.5865069999999832;2435
532;1.5894422999990638;2434
533;1.5926111999997374;2434
534;1.5956036999996286;2434
535;1.5986087000001135;2434
536;1.6016094999995403;2433
537;1.6042997999993531;2433
538;1.6076061000003392;2432
539;1.6106053999992582;2432
540;1.6136097999988124;2431
541;1.6166002999998454;2431
542;1.6196034999993572;2430
543;1.6226171999987855;2430
544;1.6256111999991845;2430
545;1.628611699999965;2429
546;1.6315992999989248;2428
547;1.6346059999996214;2428
548;1.637403099999574;2427
549;1.6406331999987742;2427
550;1.6436061000003974;2427
551;1.6466158000002906;2426
552;1.6496052000002237;2426
553;1.6523670999995375;2425
554;1.6554588999988482;2425
555;1.6586059000001114;2425
556;1.6615992999995797;2424
557;1.664614100000108;2423
558;1.6676093000005494;2423
559;1.6705526999994618;2422
560;1.6733165000005101;2421
561;1.6763396000005741;2421
562;1.6783412000004319;2420
563;1.6812831999995979;2420
564;1.6845788999999058;2420
565;1.6875065000003815;2419
566;1.690414900000178;2419
567;1.6933854999988398;2419
568;1.6963629000001674;2418
569;1.6994921999994403;2418
570;1.702700800000457;2418
571;1.7070220000005065;2417
572;1.7109203999989404;2417
573;1.7149353999993764;2416
574;1.7189139000001887;2416
575;1.7229191999995237;2415
576;1.7269316999991133;2414
577;1.7309110999995028;2414
578;1.734927499999685;2413
579;1.7386838999991596;2413
580;1.7418763000005129;2412
581;1.7459206000003178;2412
582;1.7499368999997387;2411
583;1.7540141999998013;2411
584;1.7568971000000602;2410
585;1.7609487999998237;2410
586;1.7649373999993259;2409
587;1.7684226000001217;2408
588;1.7712804999991931;2408
589;1.7745844000000943;2407
590;1.7776156999989325;2407
591;1.7805823999988206;2407
592;1.7835405999994691;2407
593;1.786631099999795;2407
594;1.7896443999998155;2406
595;1.79264030000013;2406
596;1.795636499999091;2406
597;1.798665299998902;2405
598;1.8016423999997642;2405
599;1.80429279999953;2404
600;1.8076495999994222;2404
601;1.810645100000329;2404
602;1.8136321999991196;2403
603;1.8163401000001613;2403
604;1.8196391000001313;2403
605;1.822524199998952;2403
606;1.8256242999996175;2402
607;1.8286219999990863;2403
608;1.831628300000375;2402
609;1.8346404999992956;2402
610;1.8373355000003357;2402
611;1.8395316999994975;2402
612;1.8425384999991365;2402
613;1.8454817999991064;2401
614;1.848310199999105;2401
615;1.85150319999957;2400
616;1.8542426000003616;2400
617;1.8563080999992962;2400
618;1.8582925999999134;2399
619;1.8612346999998408;2399
620;1.8632607999988977;2399
621;1.865237399999387;2399
622;1.8671190000004572;2399
623;1.8691232999990461;2399
624;1.871155099999669;2399
625;1.873275800000556;2399
626;1.8753887000002578;2399
627;1.8773003000005701;2399
628;1.8804077999993751;2399
629;1.8823622999989311;2399
630;1.884278199999244;2399
631;1.8864240999992035;2399
632;1.8893874999994296;2399
633;1.8915813999992679;2398
634;1.896041799998784;2398
635;1.8999058999997942;2398
636;1.903964699999051;2399
637;1.9069113000005018;2399
638;1.910734400000365;2398
639;1.9136956999991526;2399
640;1.9178032999989227;2399
641;1.9207117999994807;2399
642;1.9236199999995733;2400
643;1.9266143999993801;2400
644;1.9296130999991874;2400
645;1.932658599998831;2401
646;1.936529700000392;2401
647;1.939677299998948;2401
648;1.9426488999997673;2401
649;1.9456403000003775;2401
650;1.9486503999996785;2402
651;1.9516593999996985;2402
652;1.9543032000001404;2402
653;1.9576405999996496;2402
654;1.960614199999327;2402
655;1.9636157999993884;2402
656;1.9663362999999663;2403
657;1.968341199999486;2403
658;1.9703074999997625;2402
659;1.972338600000512;2403
660;1.9759183999995003;2403
661;1.9799196999993;2403
662;1.9828575999999885;2403
663;1.986928899999839;2403
664;1.989856599999257;2403
665;1.9926789000001008;2404
666;1.9958449000005203;2404
667;1.9985851000001276;2404
668;2.0015745000000607;2404
669;2.0043129000005138;2404
670;2.0076066000001447;2404
671;2.010576399999991;2405
672;2.0134852999999566;2405
673;2.016621299999315;2406
674;2.0196166999994603;2406
675;2.022634699998889;2406
676;2.0256042999990314;2406
677;2.028341100000034;2406
678;2.0316313000002992;2407
679;2.0346119000005274;2407
680;2.037342499999795;2407
681;2.040612599999804;2408
682;2.04349639999964;2408
683;2.046606800000518;2408
684;2.049602600000071;2408
685;2.052604299999075;2409
686;2.05562959999952;2409
687;2.058641899999202;2409
688;2.0616351999997278;2409
689;2.064613399999871;2409
690;2.0676046999997197;2410
691;2.0705667000001995;2410
692;2.0736369999995077;2410
693;2.0763719999995374;2410
694;2.0783817999999883;2411
695;2.0803314999993745;2411
696;2.0823490000002494;2412
697;2.0843540000005305;2412
698;2.086659900000086;2412
699;2.089853800000128;2412
700;2.0923088999988977;2413
701;2.0958107999995264;2413
702;2.0988335000001825;2414
703;2.102929900000163;2414
704;2.105836700000509;2415
705;2.1088526000003185;2416
706;2.111851800000295;2416
707;2.114682499999617;2417
708;2.1176510999994207;2417
709;2.120667400000457;2418
710;2.123646199999712;2418
711;2.126586899999893;2419
712;2.1296043999991525;2420
713;2.132577399999718;2420
714;2.1356130999993184;2421
715;2.1383710999998584;2421
716;2.1416436999988946;2422
717;2.1446309000002657;2422
718;2.1476380999993125;2423
719;2.1506310000004305;2423
