;time;amplitude
0;0.003999600001407089;2523
1;0.007764600000882638;2522
2;0.012170400001195958;2522
3;0.016760100001192768;2522
4;0.021190600000409177;2522
5;0.0266871000003448;2521
6;0.031185900001219125;2522
7;0.03617600000143284;2521
8;0.041171100001520244;2521
9;0.046247300000686664;2521
10;0.050655600000027334;2521
11;0.05521320000116248;2520
12;0.060130200001367484;2520
13;0.06523639999977604;2520
14;0.0692202999998699;2520
15;0.07427070000085223;2519
16;0.07808610000029148;2520
17;0.08328980000078445;2520
18;0.08824710000044433;2519
19;0.09326169999985723;2519
20;0.09705110000140849;2518
21;0.10167040000123961;2518
22;0.1062699000012799;2517
23;0.11120120000123279;2517
24;0.11627589999989141;2517
25;0.11970600000131526;2516
26;0.12411290000090958;2517
27;0.1290859000000637;2517
28;0.13265839999985474;2516
29;0.13665060000130325;2516
30;0.14098240000021178;2516
31;0.14496370000051684;2515
32;0.14967100000103528;2515
33;0.15241539999988163;2514
34;0.15593580000131624;2514
35;0.15989140000056068;2514
36;0.1636686000001646;2514
37;0.1674086000002717;2514
38;0.17074719999982335;2514
39;0.17503140000007988;2514
40;0.17897540000012668;2513
41;0.18267550000018673;2514
42;0.1869412000014563;2514
43;0.19090310000137833;2513
44;0.19495260000076087;2512
45;0.19835109999985434;2512
46;0.20134060000054887;2511
47;0.20467920000010054;2511
48;0.20765150000079302;2511
49;0.21141870000064955;2511
50;0.2147158000007039;2511
51;0.2184876000010263;2510
52;0.2217913000004046;2510
53;0.2246625000007043;2510
54;0.2287573000012344;2509
55;0.23281870000027993;2509
56;0.2367826999998215;2508
57;0.24084200000106648;2508
58;0.24482370000077935;2507
59;0.248822100000325;2507
60;0.2523952999999892;2507
61;0.25576510000064445;2506
62;0.25983540000015637;2506
63;0.263821900000039;2505
64;0.2674384000001737;2505
65;0.270764800001416;2505
66;0.2748186999997415;2504
67;0.2788190000010218;2504
68;0.2828220000010333;2503
69;0.286864700001388;2502
70;0.29082660000131;2502
71;0.29474970000046596;2502
72;0.2988180000011198;2501
73;0.3017632000010053;2501
74;0.3057364000014786;2500
75;0.3098334000005707;2500
76;0.3133917000013753;2499
77;0.3163890000014362;2498
78;0.3196938000000955;2498
79;0.3238427000014781;2497
80;0.32789510000111477;2496
81;0.3318421000003582;2496
82;0.33585320000020147;2495
83;0.339829100001225;2494
84;0.3438175000010233;2493
85;0.3462349000001268;2493
86;0.3497261000011349;2493
87;0.35246440000082657;2492
88;0.355466000000888;2492
89;0.3584734000014578;2491
90;0.3612760000014532;2491
91;0.3642760000002454;2490
92;0.3675254000008863;2489
93;0.3705096000012418;2489
94;0.3734786000004533;2488
95;0.376517500000773;2488
96;0.3795324000002438;2487
97;0.3823184000011679;2487
98;0.385532800000874;2486
99;0.388529900001231;2486
100;0.3915390000001935;2485
101;0.39452950000122655;2485
102;0.3975367000002734;2485
103;0.4002894000004744;2484
104;0.40352420000090206;2483
105;0.40652349999982107;2483
106;0.4095342000000528;2482
107;0.4125326000012137;2481
108;0.41533309999977064;2481
109;0.41891060000125435;2480
110;0.4227929000007862;2480
111;0.4267885999997816;2479
112;0.43075730000055046;2478
113;0.4347661000010703;2478
114;0.4388170000001992;2477
115;0.4428282000008039;2477
116;0.4468274000009842;2475
117;0.450357100000474;2475
118;0.4548564000015176;2474
119;0.4588245000013558;2473
120;0.46276940000097966;2472
121;0.4664245000003575;2471
122;0.4708468000007997;2470
123;0.47482529999979306;2469
124;0.47930950000045414;2469
125;0.48284570000032545;2468
126;0.48672150000129477;2468
127;0.49083750000136206;2467
128;0.49366510000072594;2466
129;0.4978361000012228;2465
130;0.501795400001356;2463
131;0.5058275000010326;2463
132;0.5098273000003246;2461
133;0.5138234000005468;2461
134;0.517572000000655;2460
135;0.5217633000011119;2459
136;0.5255605000002106;2458
137;0.5298584000011033;2457
138;0.5331960000003164;2456
139;0.536784500000067;2456
140;0.540739100000792;2455
141;0.5447464999997464;2454
142;0.5487556000007316;2453
143;0.5516729000009946;2452
144;0.5555012000004353;2451
145;0.5598587000004045;2450
146;0.5638278000005812;2449
147;0.5675553000000946;2448
148;0.5714094000013574;2447
149;0.5747693000012077;2446
150;0.5788067000012234;2445
151;0.5828113000006852;2445
152;0.5863394000007247;2444
153;0.5891523000009329;2443
154;0.5927701000000525;2443
155;0.5967387000000599;2441
156;0.6002626999998029;2440
157;0.6037902000007307;2439
158;0.607689800001026;2438
159;0.6118375000005472;2437
160;0.6158476000000519;2437
161;0.6187755999999354;2436
162;0.6228224000005866;2435
163;0.6266751000002841;2434
164;0.6308411999998498;2432
165;0.6347737000014604;2431
166;0.6388349999997445;2430
167;0.6427853000004689;2429
168;0.6468167000002722;2428
169;0.6503083000006882;2427
170;0.6538321000007272;2426
171;0.6574111999998422;2425
172;0.6605264000008901;2424
173;0.6643234000002849;2423
174;0.6681917000005342;2422
175;0.6718286000013904;2421
176;0.6758279000005132;2420
177;0.6798298000012437;2419
178;0.6833209000014904;2418
179;0.686181500001112;2417
180;0.6892717000009725;2416
181;0.6924097000010079;2415
182;0.6953950000006444;2414
183;0.698372400000153;2414
184;0.7023970000009285;2413
185;0.7056146000013541;2413
186;0.7096231000014086;2412
187;0.7136779000011302;2411
188;0.7176494000013918;2410
189;0.7218319000003248;2408
190;0.7257475000005797;2407
191;0.7298234000008961;2406
192;0.7333706000008533;2405
193;0.7367609000011726;2404
194;0.7407454000003781;2403
195;0.7447612000014487;2402
196;0.7487673000014183;2401
197;0.7528459000004659;2401
198;0.7567446000011842;2399
199;0.7607654000003095;2399
200;0.7647298000010778;2398
201;0.768758500000331;2396
202;0.7717504000011104;2395
203;0.775583500000721;2394
204;0.7784597000008944;2392
205;0.7815955000005488;2392
206;0.7845336000009411;2391
207;0.7874994000012521;2390
208;0.7905743999999686;2389
209;0.7936220999999932;2389
210;0.7972528000009333;2388
211;0.8001433000008547;2387
212;0.8035109000011289;2386
213;0.8064967000009347;2385
214;0.8095006000003195;2384
215;0.812450200000967;2384
216;0.8155271000014181;2383
217;0.8185303000009299;2382
218;0.8215235000006942;2381
219;0.8245345000013913;2380
220;0.8271992999998474;2379
221;0.8303250999997545;2379
222;0.833197800000562;2378
223;0.8362680999998702;2377
224;0.8393138999999792;2376
225;0.8428481000009924;2375
226;0.8468783000007534;2374
227;0.8504462000000785;2374
228;0.8535932000013418;2373
229;0.8564911000012216;2372
230;0.8594938000005641;2371
231;0.8623305000000983;2371
232;0.865269800000533;2370
233;0.8683055000001332;2369
234;0.8719109000012395;2368
235;0.8752572000012151;2367
236;0.8798022999999375;2366
237;0.8832668000013655;2365
238;0.887609400000656;2364
239;0.8905931000008422;2363
240;0.8935797000012826;2362
241;0.8965822999998636;2362
242;0.8995470000008936;2361
243;0.902483800000482;2361
244;0.9054948000011791;2360
245;0.9084892000009859;2359
246;0.9115299000004597;2358
247;0.9145165999998426;2357
248;0.9185308000014629;2357
249;0.9215270000004239;2356
250;0.9245179000008648;2355
251;0.9275173000005452;2354
252;0.9305167000002257;2354
253;0.9331742000013037;2353
254;0.9365176000010251;2352
255;0.9395151999997324;2352
256;0.942527400000472;2351
257;0.9455202000008285;2350
258;0.9485058999998728;2349
259;0.9515179000009084;2348
260;0.9545085000008839;2347
261;0.9574984000009863;2347
262;0.960424700000658;2346
263;0.9631313000008959;2346
264;0.9662325999997847;2345
265;0.9694939000000886;2344
266;0.972497700000531;2344
267;0.9754966000000422;2343
268;0.9781421000006958;2342
269;0.9814146000007895;2341
270;0.9844403000006423;2340
271;0.9874948000015138;2340
272;0.9905083000012382;2339
273;0.993499600001087;2339
274;0.9964257000010548;2338
275;0.9993140000005951;2338
276;1.0024190000003728;2337
277;1.005498800001078;2336
278;1.008519900000465;2336
279;1.0115074000004824;2335
280;1.0144955000014306;2335
281;1.017508300001282;2334
282;1.0205009000001155;2333
283;1.0234962000013184;2333
284;1.0262555000008433;2332
285;1.0294112999999925;2332
286;1.0324295000009442;2331
287;1.035499499999787;2330
288;1.038413700000092;2330
289;1.0413239000008616;2328
290;1.0442215000002761;2328
291;1.0474358000010398;2328
292;1.0503693999999086;2327
293;1.0534223000013299;2327
294;1.0565189999997529;2327
295;1.0595178000003216;2326
296;1.0625361000002158;2326
297;1.0655060999997659;2325
298;1.0684522000010475;2324
299;1.0715309000006528;2323
300;1.074499600001218;2323
301;1.0775083000007726;2322
302;1.0804239999997662;2322
303;1.083252899999934;2322
304;1.0865315000010014;2322
305;1.0895165000001725;2321
306;1.092384100000345;2321
307;1.0954230000006646;2320
308;1.098526400000992;2320
309;1.1015029000009235;2320
310;1.1042684000003646;2320
311;1.1074396000003617;2320
312;1.1104377999999997;2319
313;1.1134266999997635;2319
314;1.1161726999998791;2318
315;1.1193988000013633;2318
316;1.1224484000013035;2317
317;1.125516800000696;2317
318;1.1284993000008399;2316
319;1.1315166000003956;2316
320;1.1345166999999492;2315
321;1.1385128000001714;2315
322;1.141512000000148;2314
323;1.1445117000002938;2314
324;1.1475091000011162;2313
325;1.1503431000001;2313
326;1.1532962000001135;2313
327;1.156279300001188;2312
328;1.1594792000014422;2312
329;1.1625063000010414;2311
330;1.1655078000003414;2311
331;1.168520700000954;2310
332;1.1713389000015013;2310
333;1.174332200000208;2310
334;1.1773374000003969;2309
335;1.1801775000003545;2308
336;1.183257800001229;2308
337;1.1863584000002447;2308
338;1.1893619000002218;2308
339;1.1923653000012564;2308
340;1.195372899999711;2308
341;1.1983613000011246;2307
342;1.2015102000004845;2306
343;1.2045183000009274;2306
344;1.2075277000003553;2306
345;1.2108561000004556;2306
346;1.2149050000007264;2306
347;1.2188098000005994;2306
348;1.2228971000004094;2306
349;1.226574199999959;2306
350;1.2298406999998406;2305
351;1.233389700000771;2305
352;1.2367236999998568;2306
353;1.2409330000009504;2305
354;1.244880700000067;2305
355;1.2485458999999537;2305
356;1.2517493000013928;2305
357;1.2558456000006117;2305
358;1.2597418000004836;2305
359;1.2638346000003366;2304
360;1.2662704000013036;2304
361;1.2697856000013417;2305
362;1.2737995000006777;2305
363;1.2778152999999293;2305
364;1.2818213000009564;2304
365;1.2847624000005453;2305
366;1.2888202000012825;2305
367;1.2927024000000529;2305
368;1.2967938000001595;2305
369;1.3003984000006312;2305
370;1.3048536000005697;2305
371;1.3088244999999006;2304
372;1.3128043000015168;2304
373;1.3163994000005914;2305
374;1.3208291000009922;2305
375;1.3248300000013842;2305
376;1.328828200001226;2305
377;1.33286550000048;2305
378;1.3368465000003198;2305
379;1.3408257999999478;2306
380;1.3437613000005513;2305
381;1.3478209000004426;2305
382;1.3518029000006209;2305
383;1.355822100000296;2305
384;1.3607503000002907;2305
385;1.3648379000005662;2305
386;1.3675535000002128;2305
387;1.3718593000012334;2305
388;1.3758324000009452;2306
389;1.3798235000012937;2306
390;1.3834036000007472;2306
391;1.3867762999998376;2306
392;1.3908224000006157;2306
393;1.3948281000011775;2306
394;1.3988320000007661;2307
395;1.4017664000002696;2306
396;1.4053717000006145;2307
397;1.4097323000005417;2307
398;1.4138370000000577;2307
399;1.4177743000000191;2307
400;1.421590699999797;2308
401;1.4254915000001347;2308
402;1.4287376000011136;2308
403;1.4325669999998354;2309
404;1.435770500000217;2309
405;1.439819900000657;2309
406;1.4438239000010071;2309
407;1.4478211000005103;2309
408;1.45029870000144;2309
409;1.4537970000001224;2309
410;1.4577961000013602;2310
411;1.4618251000010787;2310
412;1.465847900000881;2310
413;1.4698243000002549;2310
414;1.473823000000266;2311
415;1.4778266000012081;2311
416;1.4817941000001156;2312
417;1.4847681000010198;2312
418;1.4888456999997288;2312
419;1.492815800000244;2312
420;1.4967840999997861;2313
421;1.50043370000094;2313
422;1.5037674000013794;2313
423;1.5078227000012703;2314
424;1.5113443000009283;2315
425;1.5158451000006608;2316
426;1.5198529999997845;2316
427;1.5238294999999198;2317
428;1.5274114000003465;2318
429;1.5318290000013803;2318
430;1.5347509000002901;2318
431;1.5387449999998353;2318
432;1.5428002000007837;2318
433;1.5468197999998665;2319
434;1.5504957000011927;2319
435;1.5537710999997216;2318
436;1.5578144999999495;2319
437;1.5618260000010196;2319
438;1.5658335000007355;2320
439;1.569855200001257;2320
440;1.5738096000004589;2320
441;1.5778248000005988;2320
442;1.5818226999999752;2320
443;1.5847568999997748;2320
444;1.5888445000000502;2320
445;1.59230590000152;2320
446;1.5957794000005379;2321
447;1.5994967000006;2321
448;1.6027614000013273;2321
449;1.6067707000001974;2321
450;1.6108276000013575;2322
451;1.6148301000011998;2323
452;1.61756190000051;2323
453;1.6213662999998633;2324
454;1.6247591000010289;2324
455;1.6288386000014725;2325
456;1.6328336000005947;2325
457;1.6368263000003935;2326
458;1.6408252000001085;2326
459;1.6448202000010497;2327
460;1.6488145000002987;2327
461;1.6517620000013267;2328
462;1.654305199999726;2328
463;1.6573193000003812;2328
464;1.6609077000011894;2329
465;1.6648858999997174;2329
466;1.6673060000011901;2329
467;1.670781500000885;2330
468;1.673796000000948;2330
469;1.6777675000012096;2330
470;1.6817918000015197;2331
471;1.6856533000009222;2331
472;1.6885736000003817;2331
473;1.6915779000009934;2331
474;1.6944183000014164;2332
475;1.697430500000337;2332
476;1.7022961000002397;2333
477;1.7052473000003374;2333
478;1.7082477000003564;2334
479;1.7117643000001408;2334
480;1.7158392000001186;2335
481;1.719620900001246;2336
482;1.7225926999999501;2336
483;1.7256006000006892;2336
484;1.7284507000003941;2337
485;1.7314467000014702;2338
486;1.734483000000182;2338
487;1.7374447000001965;2339
488;1.7404146999997465;2339
489;1.7434576000014204;2339
490;1.7464902000010625;2340
491;1.7492799999999988;2340
492;1.7524234000011347;2341
493;1.755429800001366;2341
494;1.7584301000006235;2342
495;1.761430399999881;2342
496;1.7644314000008308;2343
497;1.7674298000001727;2343
498;1.770437099999981;2344
499;1.7734451000014815;2344
500;1.7764318999998068;2344
501;1.7792234999997163;2344
502;1.7824264000009862;2345
503;1.7854353000002448;2346
504;1.7884333000001789;2346
505;1.791431300000113;2346
506;1.7943629000001238;2347
507;1.7974274000007426;2347
508;1.8004300000011426;2348
509;1.8034399000007397;2349
510;1.8064422000006743;2349
511;1.8094318000003113;2350
512;1.8124206000011327;2350
513;1.8153978999998799;2351
514;1.8185438000000431;2352
515;1.8215377000014996;2353
516;1.8245456000004197;2353
517;1.8272269999997661;2354
518;1.8305407000007108;2355
519;1.8333105000001524;2356
520;1.8365389999999024;2356
521;1.8395196000001306;2357
522;1.8421506000013324;2358
523;1.8455252000003384;2359
524;1.848518900000272;2359
525;1.8515156000012212;2360
526;1.8545200999997178;2361
527;1.8575166999999055;2361
528;1.8605279000003065;2362
529;1.8635219000007055;2362
530;1.8662373000006482;2363
531;1.8695200000001932;2364
532;1.8725188999997044;2365
533;1.8755226000012044;2365
534;1.878515399999742;2366
535;1.8815217000010307;2366
536;1.8845240999999078;2367
537;1.88751880000018;2368
538;1.8905178000004526;2368
539;1.893528200000219;2369
540;1.8965212000002794;2370
541;1.8991616000002978;2370
542;1.9025121000013314;2370
543;1.905416100000366;2371
544;1.9085281000006944;2372
545;1.9115146000003733;2373
546;1.9145368999998027;2373
547;1.917519300001004;2374
548;1.9202345000012428;2375
549;1.9235122999998566;2375
550;1.9265285000001313;2376
551;1.929530600000362;2377
552;1.932466000000204;2377
553;1.9355168000001868;2378
554;1.9385259999999107;2378
555;1.941531100001157;2378
556;1.944527100000414;2379
557;1.9475173000009818;2380
558;1.9503877000006469;2380
559;1.9535258000014437;2381
560;1.956520100000489;2381
561;1.9595226000001276;2382
562;1.9625248000011197;2383
563;1.965480300001218;2383
564;1.9685202000000572;2384
565;1.9715218000001187;2384
566;1.974515900001279;2385
567;1.9775294000010035;2386
568;1.9805228000004718;2386
569;1.9833180000005086;2387
570;1.9865242000014405;2387
571;1.9895094000003155;2387
572;1.9925182000006316;2388
573;1.9955181000004814;2389
574;1.998544000000038;2389
575;2.0015247000010277;2390
576;2.004518100000496;2391
577;2.007516800000303;2392
578;2.010526400001254;2392
579;2.013174200001231;2393
580;2.0161655000010796;2394
581;2.0195191000002524;2394
582;2.0225233000001026;2395
583;2.0255127000000357;2396
584;2.0285245000013674;2396
585;2.0315277999998216;2397
586;2.034523199999967;2397
587;2.0375297000009596;2398
588;2.0405232000011893;2398
589;2.0435149000004458;2399
590;2.0465206999997463;2400
591;2.0491637000013725;2401
592;2.052514400000291;2402
593;2.0555254999999306;2402
594;2.058501700001216;2403
595;2.0615219000010256;2404
596;2.0645199000009598;2404
597;2.0675262000004295;2405
598;2.070516600000701;2405
599;2.073520500000086;2406
600;2.0762614000013855;2407
601;2.079531700001098;2407
602;2.082428300000174;2408
603;2.0855220000012196;2408
604;2.088491399999839;2409
605;2.091533500000878;2410
606;2.0945256000013615;2410
607;2.097499200001039;2411
608;2.1005230999999185;2412
609;2.103515200000402;2413
610;2.106524200000422;2413
611;2.109518900000694;2414
612;2.1125229000008403;2415
613;2.115508500000942;2416
614;2.1185229000002437;2416
615;2.1215155000008963;2416
616;2.1253787000005104;2417
617;2.1285244999999122;2418
618;2.1315270000013697;2419
619;2.1345216000008804;2420
620;2.137531399999716;2421
621;2.1405279000009614;2421
622;2.143520900001022;2422
623;2.1465234000006603;2423
624;2.149205300000176;2423
625;2.1525222000000213;2424
626;2.155218600000808;2424
627;2.1571656000014627;2425
628;2.159282600001461;2425
629;2.1622630000001664;2426
630;2.165524900001401;2427
631;2.1685488000002806;2428
632;2.1724996000011743;2428
633;2.1754895000012766;2429
634;2.1795459000004485;2430
635;2.1825607999999193;2430
636;2.1854057000000466;2431
637;2.188421800001379;2431
638;2.191395300000295;2432
639;2.1943846000012854;2433
640;2.1973907999999938;2434
641;2.200578600000881;2434
642;2.203534000000218;2435
643;2.2065160000001924;2435
644;2.209523999999874;2436
645;2.2125228000004427;2436
646;2.215544000000591;2437
647;2.2185236000004807;2437
648;2.221515299999737;2438
649;2.224518099999841;2439
650;2.227415600000313;2439
651;2.2305362000006426;2440
652;2.2333689000006416;2441
653;2.2364749000007578;2441
654;2.2395013000004838;2441
655;2.2424996999998257;2442
656;2.245516700000735;2443
657;2.2482481000006374;2443
658;2.251500300000771;2443
659;2.254506900000706;2444
660;2.257497600001443;2445
661;2.260494699999981;2446
662;2.2634687000008853;2447
663;2.2662404000002425;2447
664;2.2694969000003766;2448
665;2.2725109000002703;2449
666;2.2754210000002786;2449
667;2.2784932000013214;2450
668;2.281498800000918;2450
669;2.284494999999879;2451
670;2.2874962000005326;2452
671;2.2905083000005106;2452
672;2.2934948000001896;2453
673;2.296498600000632;2454
674;2.2992007000011654;2454
675;2.302504900000713;2455
676;2.305504200001451;2455
677;2.308500600000116;2456
678;2.31149860000005;2457
679;2.314500600001338;2457
680;2.317189600000347;2458
681;2.3192352000005485;2459
682;2.3212933000013436;2459
683;2.3242862000006426;2460
684;2.3271184000004723;2460
685;2.329134999999951;2461
686;2.3323314000008395;2461
687;2.335235399999874;2462
688;2.3371416999998473;2462
689;2.3395520000012766;2462
690;2.3426233000009233;2463
691;2.345742400000745;2464
692;2.3482006000012916;2465
693;2.350277700001243;2465
694;2.3531762000002345;2466
695;2.356237500000134;2467
696;2.3594787000001816;2467
697;2.3624366000003647;2468
698;2.3652474000009533;2469
699;2.3684052000007796;2469
700;2.3711371999997937;2470
701;2.3732577999999194;2471
702;2.3762987999998586;2471
703;2.379314499999964;2472
704;2.3822852000012062;2472
705;2.385366900000008;2473
706;2.3883600999997725;2473
707;2.391148200000316;2474
708;2.3943607000001066;2475
709;2.3973643999997876;2475
710;2.400402100000065;2476
711;2.40334410000105;2476
712;2.406368300000395;2477
713;2.4093284999999014;2477
714;2.4123660000004747;2478
715;2.4153633000005357;2479
716;2.418421100001069;2479
717;2.421384400000534;2479
718;2.42430880000029;2480
719;2.427539100001013;2480
