;time;amplitude
0;0.004183600000033039;2369
1;0.009183000000120956;2369
2;0.014205899999069516;2369
3;0.019259999999121646;2369
4;0.023803300000508898;2369
5;0.028265599999940605;2369
6;0.033322100000077626;2370
7;0.03795720000016445;2369
8;0.04194939999979397;2370
9;0.04562649999934365;2370
10;0.0495243000004848;2370
11;0.052491500000542146;2370
12;0.055383200000505894;2370
13;0.058886400000119465;2370
14;0.06284760000016831;2371
15;0.06693730000006326;2371
16;0.07093050000003132;2371
17;0.07486919999973907;2370
18;0.07885480000004463;2370
19;0.0828375999990385;2370
20;0.08648949999951583;2370
21;0.08949589999974705;2369
22;0.09256169999935082;2369
23;0.09552880000046571;2370
24;0.0984731999997166;2369
25;0.10152679999919201;2369
26;0.10495520000040415;2369
27;0.10935839999910968;2369
28;0.1143938999994134;2370
29;0.11938629999895056;2369
30;0.12404029999925115;2369
31;0.12889410000025237;2369
32;0.1325963999988744;2370
33;0.13652600000023085;2369
34;0.1404067000003124;2370
35;0.14382709999881627;2370
36;0.14682960000027379;2370
37;0.15060540000013134;2371
38;0.15363210000032268;2371
39;0.1565296999997372;2371
40;0.15962589999980992;2371
41;0.16251009999905364;2372
42;0.1655001999988599;2372
43;0.16855839999880118;2372
44;0.17125769999984186;2372
45;0.17360199999893666;2373
46;0.17651049999949464;2372
47;0.17979379999997036;2372
48;0.18379269999968528;2373
49;0.18739819999973406;2372
50;0.1904039000000921;2373
51;0.19347360000028857;2373
52;0.19649810000009893;2373
53;0.19949090000045544;2373
54;0.20254240000031132;2373
55;0.205408300000272;2373
56;0.20855610000035085;2373
57;0.21151439999994182;2373
58;0.21456009999928938;2373
59;0.2176158000002033;2373
60;0.22057349999886355;2373
61;0.22353329999896232;2373
62;0.22657090000029712;2373
63;0.22957839999980933;2373
64;0.2325749999999971;2373
65;0.23557849999997416;2372
66;0.23817939999935334;2373
67;0.24158639999950537;2373
68;0.24458810000032827;2373
69;0.24758289999954286;2373
70;0.2505781999989267;2373
71;0.2535728000002564;2373
72;0.25657630000023346;2373
73;0.25957910000033735;2374
74;0.2625473999996757;2374
75;0.2654965000001539;2374
76;0.2684986000003846;2374
77;0.271568500000285;2374
78;0.27457940000022063;2374
79;0.277496799999426;2374
80;0.2805014999994455;2374
81;0.2835068999993382;2374
82;0.286580199999662;2375
83;0.2894360999998753;2375
84;0.2925811999994039;2375
85;0.29546839999966323;2375
86;0.2984978000004048;2375
87;0.3010909000004176;2375
88;0.30457790000036766;2376
89;0.30751430000054825;2376
90;0.31049609999899985;2376
91;0.3135763999998744;2376
92;0.31647499999962747;2376
93;0.31950359999973443;2377
94;0.3222246000004816;2377
95;0.32558529999914754;2377
96;0.3285880999992514;2377
97;0.3314111999989109;2378
98;0.3345742000001337;2378
99;0.3375741999989259;2378
100;0.34057600000051025;2378
101;0.34357839999938733;2378
102;0.34625319999940984;2379
103;0.349165699999503;2378
104;0.35102089999963937;2379
105;0.3534306999990804;2379
106;0.35646599999927275;2379
107;0.35916270000052464;2379
108;0.36148510000020906;2379
109;0.36452269999972486;2379
110;0.3672721000002639;2379
111;0.37060079999901063;2379
112;0.3734757999991416;2379
113;0.37631060000057914;2379
114;0.3791455999999016;2380
115;0.3824368000005052;2380
116;0.3852821000000404;2380
117;0.388257299999168;2380
118;0.3914332000003924;2380
119;0.39434330000040063;2379
120;0.3973157000000356;2379
121;0.40028820000043197;2380
122;0.4033273000004556;2380
123;0.40620769999986805;2380
124;0.40944739999940793;2380
125;0.4125098999993497;2380
126;0.4154478000000381;2380
127;0.4184468999992532;2380
128;0.42144679999910295;2380
129;0.42420099999981176;2380
130;0.427308999998786;2380
131;0.4304216999989876;2381
132;0.4345759999996517;2381
133;0.4385000999991462;2381
134;0.44277750000037486;2382
135;0.446852699998999;2382
136;0.4508227000005718;2383
137;0.45451429999957327;2383
138;0.4578323999994609;2383
139;0.4618458999993891;2383
140;0.46581309999965015;2383
141;0.46976379999978235;2384
142;0.47381159999895317;2384
143;0.47783829999934824;2384
144;0.481795300000158;2384
145;0.48579330000029586;2385
146;0.4893637999994098;2385
147;0.49280609999914304;2385
148;0.49560399999973015;2386
149;0.4982180999995762;2386
150;0.5000447999991593;2386
151;0.5022025999987818;2386
152;0.504231200000504;2386
153;0.5062980000002426;2386
154;0.5081026999996539;2386
155;0.5103001999996195;2386
156;0.5122879999998986;2386
157;0.5152854999996634;2386
158;0.5183550999990985;2386
159;0.522078899999542;2387
160;0.5241984000003868;2387
161;0.5277346999992005;2388
162;0.5316769999990356;2388
163;0.5348040999997465;2388
164;0.5387496000003011;2389
165;0.5414920000002894;2389
166;0.5445822999990924;2389
167;0.5476011999999173;2389
168;0.5502572000004875;2389
169;0.5536938999994163;2389
170;0.5566877999990538;2389
171;0.5608475999997609;2389
172;0.5648471000004065;2390
173;0.5688494000005448;2390
174;0.5723560999995243;2390
175;0.5757515000004787;2390
176;0.5795342000001256;2390
177;0.582595300000321;2390
178;0.5855788999997458;2390
179;0.5885586999993393;2391
180;0.5915887999999541;2391
181;0.5945852000004379;2391
182;0.5975885999996535;2391
183;0.6006111999995483;2391
184;0.6036838999989413;2391
185;0.6065772999991168;2391
186;0.609568699999727;2392
187;0.6125377999996999;2392
188;0.6155753000002733;2392
189;0.6185609000003751;2393
190;0.6215448999992077;2393
191;0.6245622000005824;2393
192;0.6275648999999248;2393
193;0.6305671999998594;2394
194;0.6335631999991165;2393
195;0.6365578000004462;2394
196;0.639494699998977;2394
197;0.6425722999993013;2394
198;0.6455950999989;2394
199;0.6482185000004392;2394
200;0.6511059999993449;2395
201;0.6529656000002433;2395
202;0.6550804999988031;2395
203;0.6571144999998069;2395
204;0.6591889999999694;2395
205;0.6623603999996703;2395
206;0.6658112999994046;2396
207;0.6696006000001944;2396
208;0.6735678999993979;2396
209;0.6764442000003328;2396
210;0.6797864999989542;2396
211;0.6834691000003659;2396
212;0.6867929000000004;2397
213;0.6904522000004363;2397
214;0.6935537999997905;2397
215;0.6966372999995656;2397
216;0.6994699999995646;2397
217;0.7025685999997222;2398
218;0.7053667999989557;2398
219;0.7084546999994927;2399
220;0.7112925000001269;2398
221;0.7143517999993492;2398
222;0.7173665999998775;2399
223;0.720927299998948;2400
224;0.7233127999988938;2400
225;0.726924799999324;2400
226;0.7309363999993366;2400
227;0.7348538999995071;2401
228;0.7385689000002458;2401
229;0.7418270999987726;2402
230;0.7455864999992627;2402
231;0.7488193999997748;2402
232;0.7516410999996879;2403
233;0.7543445999999676;2403
234;0.7575381999995443;2403
235;0.7605313000003662;2403
236;0.7635432999995828;2403
237;0.7665883999998186;2403
238;0.7695260999989841;2403
239;0.7722138999997696;2404
240;0.7755577999996603;2404
241;0.778565399999934;2404
242;0.7815637000003335;2404
243;0.7845710999990843;2405
244;0.7871845999998186;2405
245;0.7893150999989302;2405
246;0.7928059000005305;2405
247;0.7962145000001328;2405
248;0.7982818000000407;2406
249;0.8000649000005069;2406
250;0.8022516000000905;2406
251;0.8043801000003441;2406
252;0.8072604999997566;2407
253;0.8103799000000436;2407
254;0.8133778999999777;2407
255;0.8166540999991412;2408
256;0.8194781000001967;2408
257;0.8221806999990804;2408
258;0.8256151000005048;2408
259;0.8286497999997664;2409
260;0.8316247999991901;2409
261;0.8345088999994914;2409
262;0.8375474000004033;2409
263;0.8404687999991438;2410
264;0.8434840999998414;2410
265;0.8465044999993552;2410
266;0.8494399999999587;2410
267;0.8524015999992116;2411
268;0.8551697000002605;2411
269;0.8585201000005327;2411
270;0.8614352999993571;2412
271;0.8644272000001365;2412
272;0.8674281000003248;2412
273;0.8704646000005596;2412
274;0.8732689999997092;2413
275;0.8764321999988169;2413
276;0.8794183999998495;2413
277;0.8824249999997846;2413
278;0.885469999999259;2413
279;0.8882983000003151;2413
280;0.891466400000354;2414
281;0.8944209999990562;2414
282;0.897431499999584;2414
283;0.9004356999994343;2415
284;0.9034381999990728;2415
285;0.9064571999988402;2416
286;0.9094396000000415;2416
287;0.9124479999991308;2416
288;0.9154433000003337;2417
289;0.918442000000141;2417
290;0.9214372000005824;2417
291;0.9244354999991629;2418
292;0.9274530000002414;2418
293;0.930436099999497;2418
294;0.9334490999990521;2418
295;0.9361769999995886;2419
296;0.9393762999989121;2419
297;0.942448499999955;2419
298;0.9454349999996339;2420
299;0.9482924999992974;2420
300;0.9512706999994407;2420
301;0.95330660000036;2420
302;0.9565270999992208;2420
303;0.9595057999995333;2421
304;0.9624973999998474;2421
305;0.9655031999991479;2421
306;0.9684942999992927;2421
307;0.9712660000004689;2422
308;0.9744888999994146;2422
309;0.9774827000001096;2422
310;0.9805099000004702;2422
311;0.9835019999991346;2422
312;0.9865888000003906;2423
313;0.9895653999992646;2423
314;0.9925702000000456;2423
315;0.9955499999996391;2423
316;0.998566899999787;2423
317;1.0015638999993826;2423
318;1.0045735999992758;2424
319;1.0075467999995453;2424
320;1.0105605999997351;2424
321;1.0135656999991625;2425
322;1.0165629999992234;2425
323;1.0195554999991145;2425
324;1.0223052999990614;2425
325;1.025566999998773;2426
326;1.0285566999991715;2426
327;1.031567099998938;2426
328;1.034274199999345;2426
329;1.0363359000002674;2427
330;1.0394330999988597;2427
331;1.0425653999991482;2427
332;1.0455707000000984;2427
333;1.0485606999991433;2428
334;1.0513090999993437;2428
335;1.054326299999957;2428
336;1.057866199998898;2429
337;1.061808000000383;2429
338;1.0657596999990346;2429
339;1.0698075000000244;2429
340;1.0737363999996887;2429
341;1.0778075999987777;2429
342;1.081361399999878;2429
343;1.0848313999995298;2429
344;1.0886257000001933;2430
345;1.0918084000004455;2430
346;1.09586759999911;2430
347;1.099842699999499;2430
348;1.1027761999994254;2431
349;1.1065848999987793;2432
350;1.1097776999995403;2431
351;1.1138639999990119;2432
352;1.1178571000000375;2432
353;1.1217166999995243;2432
354;1.125862099999722;2433
355;1.1298392999997304;2433
356;1.133351299999049;2433
357;1.1367845000004309;2433
358;1.140841200000068;2433
359;1.1448576999991928;2433
360;1.14884979999988;2434
361;1.1527967000001809;2434
362;1.1567924999999377;2434
363;1.1608618999998725;2434
364;1.1648167999992438;2434
365;1.168841299999258;2435
366;1.1724128000005294;2435
367;1.176868700000341;2435
368;1.1808430999990378;2435
369;1.1845788999999058;2435
370;1.1885970999992423;2435
371;1.191769999999451;2435
372;1.195855500000107;2435
373;1.1997976000002382;2436
374;1.202799499998946;2436
375;1.206790500000352;2437
376;1.2108626999997796;2437
377;1.214823799999067;2437
378;1.217804599998999;2437
379;1.2218873000001622;2438
380;1.2258497000002535;2438
381;1.2287705999988248;2438
382;1.232847600000241;2438
383;1.2368535000005068;2439
384;1.2408567999991647;2439
385;1.2448366999997234;2439
386;1.2487739999996847;2440
387;1.2528603999999177;2439
388;1.256795899998906;2440
389;1.2608610999996017;2440
390;1.2648503000000346;2440
391;1.268870699999752;2441
392;1.272393600000214;2441
393;1.275836700000582;2441
394;1.279826599999069;2441
395;1.2838587000005646;2441
396;1.2878443999998126;2441
397;1.2903654999990977;2442
398;1.2938563999996404;2442
399;1.2978519999996934;2442
400;1.3018668999993679;2442
401;1.3054250000004686;2443
402;1.3088086999996449;2443
403;1.3112755000001926;2443
404;1.3143753000003926;2443
405;1.3176208999993833;2443
406;1.3205292999991798;2444
407;1.3234837999989395;2444
408;1.3265473999999813;2444
409;1.3293064999998023;2444
410;1.3325499999991735;2445
411;1.3365300000004936;2445
412;1.3395106999996642;2445
413;1.342453299999761;2445
414;1.3454787999999098;2445
415;1.3484477000001789;2445
416;1.3514383999990969;2446
417;1.3542876999999862;2446
418;1.3575540000001638;2446
419;1.36053770000035;2446
420;1.3635486000002857;2446
421;1.366411099999823;2447
422;1.3694010999988677;2447
423;1.3722938999999315;2447
424;1.375352799999746;2447
425;1.3783624999996391;2448
426;1.3819253000001481;2448
427;1.385996699998941;2448
428;1.3898458000003302;2448
429;1.3938875000003463;2448
430;1.398096999999325;2449
431;1.403156799999124;2449
432;1.4079313999991427;2449
433;1.412178099999437;2450
434;1.4171692999989318;2450
435;1.4219990999990841;2451
436;1.4260935999991489;2451
437;1.4300865000004706;2451
438;1.434177199998885;2451
439;1.438847600000372;2451
440;1.4431198999991466;2451
441;1.4478142999996635;2452
442;1.4521887999999308;2451
443;1.4566572999992786;2452
444;1.4611609000003227;2452
445;1.4651878999993642;2452
446;1.4702077000001736;2452
447;1.4737174999991112;2452
448;1.4780148999998346;2452
449;1.4821664999999484;2452
450;1.4861664999989443;2453
451;1.4907192999999097;2453
452;1.495119799999884;2452
453;1.5001666999996814;2452
454;1.5042945000004693;2452
455;1.5092255999988993;2453
456;1.514185300000463;2453
457;1.5181467000002158;2454
458;1.5221683999989182;2454
459;1.5261517999988428;2454
460;1.5311588000004122;2454
461;1.5351566999997885;2454
462;1.538582099999985;2455
463;1.541680999998789;2455
464;1.546089800000118;2455
465;1.5501585000001796;2455
466;1.5541579000000638;2455
467;1.5581709999987652;2455
468;1.5621725999990304;2455
469;1.5665964999989228;2455
470;1.5705820999992284;2455
471;1.573384299999816;2456
472;1.5764087999996264;2456
473;1.5793658000002324;2456
474;1.5823428999992757;2455
475;1.5853752000002714;2456
476;1.5882935999998153;2455
477;1.5913237999993726;2456
478;1.594448599998941;2456
479;1.5973534000004292;2456
480;1.6005683000003046;2455
481;1.6035223999988375;2456
482;1.606585699999414;2456
483;1.6095679999998538;2456
484;1.6125290999989375;2456
485;1.6155679999992572;2456
486;1.6185580999990634;2456
487;1.6215840000004391;2456
488;1.6245613999999478;2457
489;1.627568699999756;2457
490;1.6303286999991542;2457
491;1.6335686999991594;2457
492;1.6365609000004042;2458
493;1.6395419000000402;2458
494;1.642562299999554;2458
495;1.6455230999999912;2458
496;1.6485677999990003;2458
497;1.6515758999994432;2458
498;1.6545157000000472;2458
499;1.6575703999988036;2458
500;1.6605345999996644;2459
501;1.6635633999994752;2459
502;1.6665653999989445;2459
503;1.669562400000359;2459
504;1.6724011000005703;2459
505;1.6755665999990015;2460
506;1.6785676999988937;2459
507;1.6815592000002653;2459
508;1.6845689000001585;2460
509;1.6875686000003043;2460
510;1.6905619999997725;2460
511;1.6933119000004808;2460
512;1.6965665999996418;2460
513;1.6995690999992803;2460
514;1.7025747999996383;2460
515;1.7052724000004673;2460
516;1.708562100000563;2460
517;1.711557200000243;2460
518;1.7145669999990787;2460
519;1.7175649999990128;2460
520;1.7205635999998776;2460
521;1.7233182999989367;2461
522;1.7265623999992386;2461
523;1.7295689000002312;2461
524;1.7325758999995742;2461
525;1.7355453000000125;2461
526;1.7382811999996193;2461
527;1.7415834999992512;2461
528;1.7442571999999927;2462
529;1.7475701999992452;2462
530;1.7505677999997715;2462
531;1.7535621999995783;2462
532;1.756276699999944;2462
533;1.7595724999991944;2462
534;1.7625657999997202;2462
535;1.7655393999993976;2462
536;1.7685604999987845;2462
537;1.7715365999993082;2462
538;1.7743166999989626;2462
539;1.7773173000005045;2462
540;1.7792255000003934;2463
541;1.781156099999862;2463
542;1.783250799999223;2463
543;1.7852456999989954;2462
544;1.7871971999993548;2463
545;1.7892977999999857;2463
546;1.7929702999990695;2463
547;1.7968153999991046;2463
548;1.8008630000003905;2463
549;1.8043025999995734;2463
550;1.8074182999989716;2464
551;1.8118646000002627;2464
552;1.815836699999636;2464
553;1.8198553999991418;2464
554;1.8233762999989267;2464
555;1.8264299999991636;2465
556;1.8297731000002386;2465
557;1.8333535000001575;2465
558;1.8366410999988148;2465
559;1.8395884999990813;2465
560;1.8426233999998658;2465
561;1.8455966000001354;2466
562;1.849576499998875;2466
563;1.8527414000000135;2466
564;1.8567741999995633;2466
565;1.8608561000000918;2467
566;1.864846700000271;2467
567;1.868862999999692;2467
568;1.872299299999213;2467
569;1.8758084999990388;2467
570;1.8784582999996928;2468
571;1.881296999999904;2468
572;1.8832497999992484;2468
573;1.8852477999989787;2468
574;1.8883587000000261;2468
575;1.891708799999833;2468
576;1.8958149999998568;2468
577;1.899771000000328;2468
578;1.9033596999997826;2468
579;1.9067249999989144;2468
580;1.9108280999989802;2468
581;1.9149670999995578;2468
582;1.9185326999995596;2468
583;1.9217355999990104;2468
584;1.92560659999981;2469
585;1.929371500000343;2469
586;1.93270929999926;2469
587;1.935504299999593;2469
588;1.938360099999045;2469
589;1.9414304999991145;2469
590;1.9445152999996935;2469
591;1.9473743999988073;2469
592;1.9503480999992462;2470
593;1.9534241000001202;2470
594;1.9562134999996488;2470
595;1.9582179999997607;2470
596;1.9613866999989114;2471
597;1.9645287000003009;2470
598;1.9673863999996684;2470
599;1.9702371999992465;2470
600;1.9733249000000797;2471
601;1.9762474999988626;2471
602;1.9793967000005068;2471
603;1.9824035999990883;2471
604;1.9853254999998171;2471
605;1.9881819999991421;2471
606;1.9913856999992277;2472
607;1.994386399999712;2472
608;1.9972854999996343;2472
609;1.9992836000001262;2472
610;2.0012581999999384;2472
611;2.0033352999998897;2472
612;2.0062295999996422;2472
613;2.0092652000003;2472
614;2.0123309999999037;2472
615;2.0154349000004004;2472
616;2.018267299999934;2472
617;2.02012730000024;2472
618;2.0221894000005705;2472
619;2.02420439999878;2472
620;2.026203399998849;2472
621;2.0283151999992697;2473
622;2.0303076000000146;2472
623;2.0337674999991577;2472
624;2.036442499998884;2473
625;2.0392553999990923;2473
626;2.04224400000021;2473
627;2.0451984999999695;2473
628;2.047267300000385;2473
629;2.0492054000005737;2473
630;2.0512106000005588;2474
631;2.0544239999999263;2474
632;2.057236399999965;2474
633;2.059145699999135;2474
634;2.061236600000484;2474
635;2.0632415000000037;2474
636;2.0653750999990734;2474
637;2.0683986999993067;2474
638;2.0715684999995574;2474
639;2.074413199999981;2474
640;2.0774050999989413;2474
641;2.0805438999996113;2474
642;2.0834592999999586;2474
643;2.0862194999990606;2474
644;2.08919380000043;2474
645;2.0921930000004068;2474
646;2.094450599999618;2475
647;2.0973885000003065;2475
648;2.1002575999991677;2475
649;2.103451999999379;2474
650;2.106257999999798;2475
651;2.1094644000004337;2475
652;2.1123164000000543;2475
653;2.1154781999994157;2474
654;2.1183425999988685;2475
655;2.1214139000003343;2475
656;2.124407899998914;2475
657;2.1271713000005548;2475
658;2.1304199999995035;2475
659;2.1332012999992003;2475
660;2.135481499999514;2475
661;2.138221799999883;2475
662;2.1402806999994937;2476
663;2.1431854000002204;2476
664;2.1462756999990233;2476
665;2.1482049000005645;2475
666;2.1502261999994516;2475
667;2.1522712000005413;2476
668;2.155225299999074;2476
669;2.1573468999995384;2476
670;2.1604827999999543;2476
671;2.163458900000478;2476
672;2.1662601999996696;2476
673;2.1682218000005378;2475
674;2.171366799999305;2475
675;2.1741953999990073;2476
676;2.176213499998994;2476
677;2.179168099999515;2476
678;2.1823160000003554;2476
679;2.185906499998964;2476
680;2.1892568999992363;2476
681;2.192519700000048;2476
682;2.196818299998995;2476
683;2.200737699999081;2476
684;2.2040051000003587;2476
685;2.206295099998897;2476
686;2.209413599999607;2476
687;2.2127600999992865;2476
688;2.216384499999549;2476
689;2.219304500000362;2477
690;2.222335899999962;2477
691;2.2252616999994643;2477
692;2.2282835000005434;2477
693;2.231542300000001;2477
694;2.2344039999989036;2478
695;2.2376053999996657;2478
696;2.2404022999999142;2478
697;2.2434078000005684;2478
698;2.2464495999993233;2478
699;2.249284199999238;2478
700;2.252300699999978;2478
701;2.2553102000001672;2478
702;2.2581718000001274;2478
703;2.2605294000004506;2478
704;2.263398999999481;2478
705;2.2665292999990925;2478
706;2.2693947999996453;2478
707;2.27220429999943;2478
708;2.2754055999994307;2478
709;2.2785853000004863;2478
710;2.2814386999998533;2478
711;2.284390799999528;2478
712;2.2873528999989503;2478
713;2.2901538999994955;2478
714;2.2922395000005054;2478
715;2.295211599999675;2478
716;2.297238199998901;2479
717;2.3002262999998493;2479
718;2.3022077000005083;2479
