;time;amplitude
0;0.004151699999056291;2394
1;0.008766499999182997;2394
2;0.013232599998445949;2393
3;0.01824549999946612;2393
4;0.0233167999995203;2393
5;0.02829629999905592;2392
6;0.03328739999960817;2392
7;0.038282499999695574;2392
8;0.04265989999839803;2391
9;0.04721369999970193;2391
10;0.051988399998663226;2391
11;0.05571549999876879;2391
12;0.05948829999942973;2390
13;0.06250919999911275;2391
14;0.06592289999935019;2390
15;0.06992459999855782;2390
16;0.07393729999967036;2390
17;0.07787509999980102;2390
18;0.08181809999950929;2390
19;0.08584840000003169;2390
20;0.08986099999856378;2390
21;0.09239819999856991;2390
22;0.09584989999893878;2390
23;0.09986179999941669;2390
24;0.10386089999883552;2391
25;0.1074200999992172;2391
26;0.11090839999997115;2391
27;0.11497379999855184;2391
28;0.11890909999965515;2391
29;0.12300499999946624;2391
30;0.12698159999854397;2392
31;0.13086719999955676;2392
32;0.13490989999991143;2392
33;0.1389724999989994;2392
34;0.1439539999992121;2393
35;0.1479128999999375;2393
36;0.15190999999867927;2393
37;0.1559903999987;2394
38;0.15944429999944987;2394
39;0.16277379999883124;2394
40;0.16698599999836006;2394
41;0.17094819999874744;2395
42;0.17474219999894558;2395
43;0.17894179999893822;2395
44;0.18292899999869405;2395
45;0.18686279999928956;2395
46;0.19091589999879943;2396
47;0.19491719999859924;2396
48;0.19890059999852383;2396
49;0.20291980000001786;2396
50;0.2070066999986011;2397
51;0.21090619999995397;2397
52;0.2148957999997947;2397
53;0.21890549999989162;2398
54;0.2229275999998208;2399
55;0.22685829999863927;2399
56;0.23088849999840022;2400
57;0.23483239999950456;2400
58;0.2389084999995248;2401
59;0.24265849999937927;2401
60;0.24686469999869587;2401
61;0.2508871999998519;2402
62;0.25488689999838243;2403
63;0.2585181999984343;2403
64;0.2618471999994654;2404
65;0.2658826999995654;2405
66;0.26938699999845994;2406
67;0.2739122999992105;2406
68;0.27790689999892493;2407
69;0.2818974999991042;2407
70;0.28592099999877973;2408
71;0.2899100999984512;2409
72;0.2928333999989263;2409
73;0.2969130999990739;2410
74;0.29934379999940575;2410
75;0.30238229999849864;2410
76;0.3069878999995126;2411
77;0.3110097999997379;2411
78;0.3148528999990958;2412
79;0.3188888999993651;2413
80;0.3228362999998353;2414
81;0.3268847999988793;2414
82;0.33043199999883655;2415
83;0.3338283999983105;2415
84;0.33795139999892854;2416
85;0.34146009999858506;2417
86;0.344916000000012;2417
87;0.3486728999996558;2418
88;0.35288309999850753;2419
89;0.3569471999999223;2420
90;0.3610056999987137;2421
91;0.3648438999989594;2422
92;0.36886499999855005;2422
93;0.3729714999990392;2423
94;0.3769881999996869;2424
95;0.3808467999988352;2425
96;0.38491769999927783;2425
97;0.3889175999993313;2426
98;0.3926060999983747;2427
99;0.3969067999987601;2428
100;0.4008125000000291;2429
101;0.40486049999890383;2430
102;0.40843779999886465;2430
103;0.41186500000003434;2431
104;0.4159104999998817;2431
105;0.41992669999854115;2432
106;0.4238798999995197;2432
107;0.4279428999998345;2433
108;0.4318753999996261;2433
109;0.4359697999989294;2434
110;0.43970119999903545;2435
111;0.442397599999822;2435
112;0.44593709999935527;2436
113;0.4496824999987439;2436
114;0.4536726999995153;2437
115;0.4578183999983594;2438
116;0.4614972999988822;2439
117;0.46486839999852236;2440
118;0.46854009999879054;2440
119;0.47299849999944854;2441
120;0.47637869999925897;2441
121;0.47972069999923406;2442
122;0.48377029999937804;2442
123;0.48782849999952305;2444
124;0.49133919999985665;2444
125;0.4947870999985753;2445
126;0.4988780999992741;2446
127;0.5028452999995352;2447
128;0.5067278999995324;2448
129;0.5095500999996148;2449
130;0.5140163999985816;2449
131;0.5179485999997269;2450
132;0.5220028999992792;2450
133;0.5254992999998649;2451
134;0.5289360999995552;2451
135;0.5330026999999973;2451
136;0.5369498000000021;2451
137;0.5405291999995825;2452
138;0.5438403999996808;2452
139;0.5479070999990654;2453
140;0.5519308999992063;2453
141;0.5559857999996893;2454
142;0.559880399998292;2455
143;0.5639025999989826;2455
144;0.5679225999992923;2455
145;0.571880899999087;2456
146;0.5754557000000204;2457
147;0.5787516000000323;2457
148;0.582799799998611;2457
149;0.5867672999993374;2458
150;0.5907511999994313;2459
151;0.5934578999986115;2459
152;0.5967193999986193;2460
153;0.6004968999986886;2460
154;0.6037213999989035;2461
155;0.6074233999988792;2461
156;0.6107022999985929;2461
157;0.6147360999984812;2462
158;0.6188243999986298;2462
159;0.6227872999988904;2462
160;0.6267967999992834;2462
161;0.6308077999983652;2462
162;0.6347792999986268;2462
163;0.6388105999994877;2462
164;0.6425270999989152;2462
165;0.6458058999996865;2462
166;0.6498739999988175;2462
167;0.6538742999982787;2462
168;0.6575368999983766;2462
169;0.6604313999996521;2462
170;0.663692499998433;2461
171;0.6666751999982807;2461
172;0.6705170999994152;2461
173;0.6732553999991069;2461
174;0.6764347999996971;2461
175;0.679424799998742;2461
176;0.6824339999984659;2460
177;0.6854591999999684;2461
178;0.6884009999994305;2460
179;0.6912438999988808;2460
180;0.6944099999982427;2460
181;0.697450799998478;2460
182;0.7004011999997601;2460
183;0.7035114999998768;2461
184;0.7065079999993031;2460
185;0.7095277999997052;2460
186;0.7125131999982841;2460
187;0.7155292999996163;2460
188;0.7185161999987031;2460
189;0.7224127999998018;2459
190;0.7255514999997104;2459
191;0.728516999999556;2459
192;0.7315209999997023;2459
193;0.7345267999990028;2458
194;0.7375017999984266;2458
195;0.7405151999992086;2458
196;0.7434997000000294;2458
197;0.746496699999625;2458
198;0.7494939999996859;2457
199;0.7525132999999187;2457
200;0.756495099998574;2457
201;0.7595011999983399;2457
202;0.7624983999994583;2456
203;0.7654893999988417;2456
204;0.768357199998718;2456
205;0.7714957999996841;2456
206;0.7741998999990756;2454
207;0.7775184999991325;2454
208;0.780498299998726;2454
209;0.7834728999987419;2454
210;0.7865011999983835;2453
211;0.7895301999997173;2452
212;0.7924961999997322;2452
213;0.7954722999984369;2452
214;0.7984374999996362;2451
215;0.8014789999997447;2451
216;0.8044719999998051;2450
217;0.8074579999993148;2450
218;0.8104704999987007;2449
219;0.8134798999999475;2449
220;0.8164707999985694;2448
221;0.8194779999994353;2448
222;0.8225028999986534;2448
223;0.8254980999990948;2447
224;0.8284765999997035;2447
225;0.8323374999999942;2446
226;0.8354626999989705;2446
227;0.8384696999983134;2446
228;0.8412033999993582;2445
229;0.8444913999992423;2445
230;0.8474950999989233;2445
231;0.8504646999990655;2445
232;0.8534709999985353;2444
233;0.8564721999991889;2443
234;0.8595005999995919;2443
235;0.8624685999984649;2443
236;0.8654819999992469;2442
237;0.8684412999991764;2442
238;0.871479299999919;2442
239;0.8742212999986805;2441
240;0.8774441999994451;2441
241;0.8802136999984214;2441
242;0.8832416999994166;2441
243;0.8861968999990495;2440
244;0.8897625999998127;2440
245;0.8927741999996215;2439
246;0.8968165999995108;2439
247;0.9006587999992917;2438
248;0.9048225999995338;2437
249;0.9082512999993924;2436
250;0.9117098999995505;2436
251;0.9158110999997007;2435
252;0.9198010000000068;2435
253;0.9238594999987981;2434
254;0.9262896999989607;2433
255;0.9292835999985982;2433
256;0.932729999998628;2433
257;0.9368567999990773;2432
258;0.9404696999990847;2431
259;0.9437075999994704;2430
260;0.947812200000044;2430
261;0.9518219999990833;2428
262;0.9558361999988847;2428
263;0.9593259999983275;2427
264;0.9623439999995753;2426
265;0.9657363999995141;2426
266;0.9693204999985028;2425
267;0.9727202999984002;2424
268;0.9762646999988647;2424
269;0.9797561999985192;2423
270;0.9837588999998843;2422
271;0.9867547999983799;2422
272;0.9908293999997113;2421
273;0.993581599999743;2420
274;0.9966581999997288;2420
275;0.9995967999984714;2419
276;1.0025702999992063;2418
277;1.0054161999996722;2417
278;1.0082982999992964;2417
279;1.0115043999994668;2416
280;1.014495999999781;2416
281;1.017463599999246;2416
282;1.0205164999988483;2415
283;1.023510899998655;2415
284;1.0262806999999157;2414
285;1.0292944999982865;2413
286;1.0322311999989324;2413
287;1.0352679999996326;2412
288;1.0388858999995136;2412
289;1.0422409999991942;2411
290;1.045719999998255;2410
291;1.0497766999997111;2409
292;1.0536973999987822;2409
293;1.056731699998636;2408
294;1.0594282999991265;2408
295;1.0624035999990156;2408
296;1.065376999998989;2407
297;1.0684504999990168;2406
298;1.0714367999989918;2406
299;1.0742182999983925;2405
300;1.07743279999886;2405
301;1.0804454999997688;2404
302;1.0834536999991542;2404
303;1.086418599999888;2404
304;1.0892317999987426;2403
305;1.092483299999003;2402
306;1.095449099999314;2402
307;1.0984254999984842;2401
308;1.1013988999984576;2401
309;1.1042020999993838;2400
310;1.1073841999987053;2400
311;1.11043189999873;2399
312;1.113346799998908;2399
313;1.1163550999990548;2398
314;1.119387499998993;2398
315;1.1223862999995617;2398
316;1.1263767999989795;2398
317;1.1293919999989157;2397
318;1.1323709999996936;2396
319;1.135361799999373;2397
320;1.138331999998627;2396
321;1.1411630999991758;2396
322;1.144365199999811;2395
323;1.1473757999992813;2395
324;1.1503706999992573;2395
325;1.1534350999991148;2394
326;1.1564451999984158;2394
327;1.1594210999992356;2393
328;1.162423799998578;2393
329;1.1653883999988466;2393
330;1.168437799999083;2393
331;1.1714193999996496;2392
332;1.175401199998305;2392
333;1.1785220999990997;2392
334;1.1814853999985644;2392
335;1.1845084999986284;2392
336;1.187548499998229;2392
337;1.1905035999989195;2392
338;1.193535399999746;2391
339;1.1965190999999322;2391
340;1.1995219999989786;2391
341;1.2025223999989976;2391
342;1.2054900999992242;2391
343;1.2083765999996103;2390
344;1.2115166999992653;2390
345;1.2144996999995783;2390
346;1.2175184999996418;2390
347;1.2202657999987423;2390
348;1.2234885999987455;2390
349;1.2264894999989338;2390
350;1.2295217999999295;2390
351;1.2324924999993527;2390
352;1.2352169999994658;2391
353;1.2385214999994787;2391
354;1.241257499999847;2391
355;1.2445218999982899;2391
356;1.2474902999983897;2391
357;1.250792699998783;2390
358;1.2535144999983459;2391
359;1.256493099999716;2391
360;1.2594958999998198;2391
361;1.2624889999988227;2391
362;1.2655179999983375;2391
363;1.2685243999985687;2391
364;1.2714828999996826;2391
365;1.2742516999987856;2392
366;1.2774896999999328;2391
367;1.2805238999990252;2391
368;1.2835335999989184;2392
369;1.286529499999233;2392
370;1.2895160999996733;2392
371;1.2925199999990582;2392
372;1.29550559999916;2392
373;1.2981452999993053;2392
374;1.3012942999994266;2393
375;1.3045255999986693;2393
376;1.3073525999989215;2393
377;1.310517299998537;2393
378;1.3135266999997839;2393
379;1.316519399999379;2393
380;1.3195206000000326;2393
381;1.322528799999418;2394
382;1.3255218999984208;2394
383;1.328522099998736;2394
384;1.3315166999982466;2395
385;1.334525099999155;2395
386;1.3375233999995544;2395
387;1.3405107999988104;2396
388;1.3435220999999729;2396
389;1.346527799998512;2396
390;1.3495274999986577;2396
391;1.352516299999479;2397
392;1.355530999999246;2397
393;1.358518399998502;2398
394;1.3625259999989794;2398
395;1.365528299998914;2398
396;1.3685171999986778;2398
397;1.3715218999986973;2398
398;1.3742386999983864;2398
399;1.3772579999986192;2399
400;1.380276199999571;2399
401;1.383257199999207;2399
402;1.3862353999993502;2400
403;1.3882092999992892;2400
404;1.390224999999191;2401
405;1.3921333999987837;2401
406;1.395202399999107;2401
407;1.3984663999999611;2401
408;1.4015038999987155;2402
409;1.4044767999985197;2402
410;1.4073201999999583;2402
411;1.410472799998388;2403
412;1.4134748999986186;2403
413;1.4164677999997366;2403
414;1.4194897999987006;2403
415;1.4224808999988454;2404
416;1.4255202999993344;2405
417;1.4285362999999052;2405
418;1.431526099999246;2406
419;1.4345226999994338;2406
420;1.437526899999284;2407
421;1.4402119999995193;2407
422;1.4421711999984836;2408
423;1.4444550999996864;2408
424;1.4474405999990267;2409
425;1.4504593999990902;2409
426;1.4535230999990745;2410
427;1.4565301999991789;2411
428;1.4592430999982753;2411
429;1.4624889999995503;2412
430;1.465256399998907;2412
431;1.4684777999991638;2413
432;1.4712612999992416;2414
433;1.4741428999986965;2414
434;1.476404699998966;2415
435;1.47926649999863;2415
436;1.4811891999997897;2416
437;1.4842690999994375;2416
438;1.4861947999997938;2417
439;1.489256499999101;2418
440;1.4910477999983414;2418
441;1.493280999999115;2418
442;1.4952628999999433;2418
443;1.49721049999971;2419
444;1.5002523999992263;2419
445;1.502211699998952;2420
446;1.5041799999999057;2420
447;1.50718710000001;2420
448;1.5102666999991925;2421
449;1.5122013999989576;2421
450;1.5152676999987307;2421
451;1.518294599998626;2422
452;1.52189289999842;2423
453;1.5242526999991242;2423
454;1.5276456999999937;2424
455;1.5305883999990328;2424
456;1.5336411999996926;2424
457;1.5366075999991153;2425
458;1.5394879999985278;2426
459;1.5424525999987964;2427
460;1.545508699999118;2427
461;1.5485097999990103;2427
462;1.5514983999983087;2428
463;1.5542699999987235;2428
464;1.5573307999984536;2429
465;1.5605175999990024;2429
466;1.5635137999997823;2429
467;1.566503099998954;2430
468;1.569403899999088;2431
469;1.572510499998316;2431
470;1.5755122999999003;2432
471;1.5784970999993675;2432
472;1.5814994999982446;2433
473;1.5845007999996596;2434
474;1.5874964999984513;2434
475;1.5904980999985128;2435
476;1.59351659999993;2436
477;1.596494099998381;2436
478;1.5994938999992883;2437
479;1.6025171999990562;2437
480;1.6055023999997502;2438
481;1.6085088999989239;2438
482;1.6115133999992395;2439
483;1.6144956999996793;2439
484;1.6172531999982311;2440
485;1.6202933999993547;2440
486;1.6235110999987228;2441
487;1.6265102999986993;2442
488;1.629489699998885;2442
489;1.632560599999124;2442
490;1.635488499998246;2443
491;1.6384748999989824;2444
492;1.6412438999996084;2444
493;1.6443495999992592;2445
494;1.6473207999988517;2445
495;1.6503256999985751;2445
496;1.6533171999999468;2446
497;1.6563718999987032;2446
498;1.659263599998667;2446
499;1.6624961999987136;2447
500;1.6654714999986027;2447
501;1.6684654999990016;2448
502;1.6712372999991203;2448
503;1.6732202999992296;2449
504;1.6753208999998606;2449
505;1.6784477999990486;2449
506;1.6814620999994077;2450
507;1.6845151999987138;2450
508;1.6875335999993695;2451
509;1.6903428999994503;2451
510;1.6933369999987917;2452
511;1.6963824999984354;2452
512;1.6993516999991698;2453
513;1.702354799999739;2453
514;1.7053424999994604;2453
515;1.7085184999996272;2454
516;1.7113384999993286;2454
517;1.7143033999982435;2454
518;1.7163100999987364;2454
519;1.7192964999994729;2455
520;1.7221708999986731;2455
521;1.7253304999994725;2456
522;1.7283222999994905;2456
523;1.7312972999989142;2457
524;1.7349488999989262;2458
525;1.7389160999991873;2458
526;1.7428120999993553;2458
527;1.7467995999995765;2459
528;1.7507737999985693;2459
529;1.7548079999996844;2460
530;1.7587453999985883;2460
531;1.7627844999988156;2461
532;1.7667842999999266;2460
533;1.7707850999995571;2461
534;1.7743683999997302;2461
535;1.7777490999997099;2462
536;1.78180379999867;2461
537;1.7858042999996542;2461
538;1.7897846999985632;2462
539;1.7927930999994715;2462
540;1.7968051999996533;2462
541;1.8002516999986256;2462
542;1.8037251999994623;2462
543;1.8075454999998328;2462
544;1.8108152999993763;2462
545;1.814790999998877;2462
546;1.8175043999999616;2462
547;1.8205106999994314;2462
548;1.823534799999834;2462
549;1.826344799999788;2462
550;1.8293117999983224;2462
551;1.8323156999995263;2462
552;1.8353337999997166;2462
553;1.8383614999984275;2462
554;1.8411246999985451;2462
555;1.8433036999995238;2462
556;1.8463127999984863;2462
557;1.8488493999993807;2461
558;1.8529077999992296;2461
559;1.856967399999121;2462
560;1.8608127999996213;2461
561;1.8648101999988285;2461
562;1.8688167000000249;2461
563;1.8728121999993164;2461
564;1.8757394999993267;2461
565;1.878685299998324;2461
566;1.8818087999989075;2460
567;1.8858122999990883;2460
568;1.889815099999396;2459
569;1.8924905999992916;2459
570;1.8955260999991879;2459
571;1.898521699999037;2458
572;1.9015399999989313;2458
573;1.9043401999988419;2458
574;1.9073305999991135;2458
575;1.9102806999999302;2457
576;1.9134569999987434;2457
577;1.916373999998541;2456
578;1.9193466999986413;2456
579;1.922357399998873;2456
580;1.925299599999562;2455
581;1.927298399999927;2455
582;1.9292866999985563;2455
583;1.932275999999547;2455
584;1.9342829999986861;2455
585;1.9379113999984838;2455
586;1.9411803999992117;2454
587;1.9442888999983552;2454
588;1.9478826999984449;2454
589;1.9514285999994172;2453
590;1.9544093999993493;2453
591;1.9572269000000233;2453
592;1.959268399999928;2453
593;1.9623318999983894;2452
594;1.9656341999998403;2452
595;1.9696103999995103;2452
596;1.9725878999997803;2451
597;1.9753027999995538;2451
598;1.9786237999996956;2450
599;1.9823676999985764;2450
600;1.9853526999995665;2450
601;1.9883684999986144;2449
602;1.9912797999986651;2449
603;1.9947260999997525;2449
604;1.9988206999987597;2448
605;2.0028171999983897;2447
606;2.0067968999992445;2446
607;2.009785099999135;2446
608;2.0138111999985995;2445
609;2.017822099998739;2445
610;2.0218188999988342;2444
611;2.0257882999994763;2444
612;2.0298107999988133;2444
613;2.0336256999999023;2443
614;2.0367370999993;2442
615;2.0407775999992737;2441
616;2.044815799999924;2441
617;2.0488064999990456;2440
618;2.0528170999987196;2439
619;2.0573681999994733;2439
620;2.060760399999708;2438
621;2.0648065999994287;2437
622;2.0688089999985095;2436
623;2.0727472999988095;2435
624;2.0757357999991655;2435
625;2.0787297999995644;2434
626;2.082812399999966;2434
627;2.086482299999261;2433
628;2.089753099999143;2432
629;2.092776799998319;2431
630;2.096811899999011;2430
631;2.1007324999991397;2429
632;2.103302099998473;2428
633;2.1067596999982925;2428
634;2.109778299998652;2427
635;2.113812499999767;2426
636;2.11782569999923;2426
637;2.1218141999997897;2425
638;2.125784500000009;2424
639;2.1298106999984157;2423
640;2.1336693999983254;2422
641;2.1378144999998767;2422
642;2.1413481999989017;2421
643;2.144764699998632;2421
644;2.1488417999989906;2421
645;2.1513273999989906;2420
646;2.154753399998299;2420
647;2.1584260999989056;2420
648;2.161712899998747;2419
649;2.1647152999994432;2418
650;2.168597999998383;2417
651;2.1717159999989235;2416
652;2.174150399998325;2416
653;2.1774091999996017;2415
654;2.180560599999808;2415
655;2.183584399999745;2415
656;2.1865634999994654;2414
657;2.18954439999834;2413
658;2.1926528999993025;2413
659;2.1957464999995864;2412
660;2.19958509999924;2412
661;2.202557099999467;2411
662;2.205588999999236;2410
663;2.208617399999639;2410
664;2.211510299999645;2409
665;2.214503999999579;2409
666;2.2175051999984134;2408
667;2.2205082000000402;2407
668;2.2235513999985415;2407
669;2.2265489999990677;2406
670;2.2295336999995925;2406
671;2.2325465999983862;2405
672;2.235534599998573;2405
673;2.2385357999992266;2405
674;2.2415416999992885;2404
675;2.2445361999998568;2404
676;2.24753999999848;2403
677;2.250514099998327;2403
678;2.2535245999988547;2402
679;2.256521299999804;2402
680;2.259545299999445;2402
681;2.2624886999983573;2401
682;2.2655289999984234;2401
683;2.268527999998696;2400
684;2.2712732999989385;2400
685;2.274225599998317;2400
686;2.277510199999597;2399
687;2.2805192999985593;2399
688;2.283453699999882;2398
689;2.2865090999985114;2398
690;2.2895114999992074;2398
691;2.292513599999438;2397
692;2.295512899998357;2397
693;2.298518999999942;2396
694;2.3015245999995386;2396
695;2.3042688999994425;2396
696;2.3065309999983583;2395
697;2.3095219999995606;2395
698;2.3125271999997494;2395
699;2.3155128999987937;2394
700;2.318353599999682;2394
701;2.321513799999593;2394
702;2.324262099999032;2394
703;2.327510199998869;2394
704;2.330524899998636;2394
705;2.3334684999990714;2393
706;2.3365186999999423;2393
707;2.33952059999865;2393
708;2.3425196999996842;2393
709;2.3455156999989413;2392
710;2.348520399998961;2392
711;2.35151709999991;2392
712;2.354514399999971;2392
713;2.3572519999997894;2392
714;2.3605187999983173;2392
715;2.363434299999426;2392
716;2.36643119999826;2392
717;2.369439099998999;2392
718;2.372265399999378;2391
719;2.3754311999982747;2391
