;time;amplitude
0;0.0025908000006893417;2313
1;0.005646800000249641;2314
2;0.008625000000392902;2314
3;0.011631900000793394;2314
4;0.014624800000092364;2314
5;0.01764010000078997;2314
6;0.02163230000041949;2315
7;0.024633499999254127;2315
8;0.027653299999656156;2315
9;0.03063760000077309;2316
10;0.033617600000070524;2316
11;0.036520999999993364;2316
12;0.03957260000061069;2316
13;0.04257069999948726;2316
14;0.04558130000077654;2317
15;0.0486029999992752;2317
16;0.05160699999942153;2317
17;0.054613599999356666;2317
18;0.057581900000514;2318
19;0.0605864000008296;2317
20;0.06360049999966577;2318
21;0.06657420000010461;2318
22;0.06940659999963827;2318
23;0.07260610000048473;2318
24;0.07558090000020457;2319
25;0.07858970000052068;2319
26;0.08158990000083577;2320
27;0.0844864000009693;2320
28;0.08757619999960298;2320
29;0.09057700000084878;2321
30;0.0935578999997233;2320
31;0.0965715000002092;2321
32;0.09960210000099323;2321
33;0.10258339999927557;2322
34;0.10559740000098827;2322
35;0.10861110000041663;2323
36;0.1115907999992487;2323
37;0.11461319999943953;2323
38;0.11760150000009162;2324
39;0.12057570000069973;2324
40;0.12359060000017053;2324
41;0.1266059999998106;2324
42;0.12959290000071633;2325
43;0.13259090000065044;2325
44;0.136540800000148;2325
45;0.1393889000009949;2326
46;0.14239570000063395;2326
47;0.14440839999952004;2326
48;0.14638440000089759;2326
49;0.14839829999982612;2327
50;0.15040399999998044;2327
51;0.15239549999932933;2327
52;0.1554046000001108;2327
53;0.15739399999984016;2328
54;0.15942159999940486;2328
55;0.16240529999959108;2328
56;0.16528269999980694;2328
57;0.16739570000027015;2329
58;0.16937370000050578;2329
59;0.17241640000065672;2329
60;0.17541350000101374;2329
61;0.17741879999994126;2330
62;0.18040429999928165;2330
63;0.1834140999999363;2330
64;0.18533879999995406;2331
65;0.18733880000036152;2331
66;0.18936740000026475;2331
67;0.19141300000046613;2331
68;0.19442850000086764;2332
69;0.19739990000016405;2332
70;0.19939549999980954;2333
71;0.20241560000067693;2333
72;0.20438490000015008;2334
73;0.2064105000008567;2334
74;0.20840320000024803;2334
75;0.21139829999992799;2335
76;0.2144573000005039;2335
77;0.217443400000775;2336
78;0.22031299999980547;2336
79;0.22242589999950724;2336
80;0.22542059999977937;2336
81;0.22834270000021206;2336
82;0.23142030000053637;2337
83;0.23447049999958836;2337
84;0.23745849999977509;2338
85;0.24046570000064094;2338
86;0.24242819999926724;2338
87;0.24636040000041248;2339
88;0.24940860000060638;2339
89;0.2523968999994395;2340
90;0.25540860000000976;2340
91;0.25743119999970077;2341
92;0.26041559999976016;2341
93;0.26340999999956694;2342
94;0.26641510000081325;2342
95;0.2693483000002743;2343
96;0.2724314000006416;2343
97;0.27522030000000086;2343
98;0.2774205999994592;2343
99;0.28042199999981676;2344
100;0.28242689999933646;2344
101;0.28544030000011844;2344
102;0.28744150000056834;2345
103;0.29043129999990924;2345
104;0.2934378000009019;2345
105;0.296443499999441;2346
106;0.29942560000017693;2347
107;0.3024246000004496;2347
108;0.3044238000002224;2348
109;0.30742669999926875;2348
110;0.31043850000060047;2349
111;0.31345669999973325;2349
112;0.31643330000042624;2350
113;0.31935390000035113;2350
114;0.32234500000049593;2350
115;0.32542470000043977;2351
116;0.3284423000004608;2351
117;0.3304269000000204;2352
118;0.33344120000037947;2352
119;0.3363420000005135;2352
120;0.33843700000034005;2353
121;0.3414102000006096;2353
122;0.34444670000084443;2354
123;0.3474303000002692;2355
124;0.3504307000002882;2356
125;0.35347619999993185;2356
126;0.35642139999981737;2357
127;0.3584141000010277;2357
128;0.36039879999952973;2358
129;0.3624034999993455;2358
130;0.36440890000085346;2359
131;0.3664117999996961;2359
132;0.3693284000000858;2359
133;0.3724017999993521;2360
134;0.3743971000003512;2361
135;0.37740630000007513;2361
136;0.37940049999997427;2362
137;0.3813817999998719;2362
138;0.38338800000019546;2363
139;0.38519319999977597;2363
140;0.38727859999926295;2364
141;0.38924629999928584;2364
142;0.3912245999999868;2365
143;0.3932292999998026;2365
144;0.3952351000007184;2366
145;0.39722360000087065;2366
146;0.39924210000026505;2366
147;0.4012237999995705;2367
148;0.4032332000006136;2367
149;0.40523340000072494;2368
150;0.40723199999956705;2368
151;0.4092326999998477;2369
152;0.4111759000006714;2369
153;0.4131675999997242;2370
154;0.4151789000006829;2370
155;0.41718000000037136;2370
156;0.41916479999963485;2371
157;0.4211615999993228;2371
158;0.4231622999996034;2372
159;0.4251547000003484;2372
160;0.4271582000001217;2373
161;0.4291558000004443;2373
162;0.43115709999983665;2374
163;0.43316070000037143;2374
164;0.4351563000000169;2375
165;0.43716200000017125;2375
166;0.4391572000004089;2376
167;0.44115530000090075;2377
168;0.4431545000006736;2377
169;0.44515019999926153;2377
170;0.44715850000102364;2378
171;0.4491643000001204;2378
172;0.45116240000061225;2379
173;0.453184500000134;2379
174;0.4552483999996184;2379
175;0.4571544999998878;2380
176;0.4591457000005903;2380
177;0.46127589999923657;2380
178;0.4632216000009066;2381
179;0.46518570000080217;2381
180;0.4671854999996867;2382
181;0.46930149999934656;2382
182;0.471187999999529;2383
183;0.4732485999993514;2383
184;0.47525450000102865;2383
185;0.47719340000003285;2384
186;0.4794660000006843;2384
187;0.4823574000001827;2385
188;0.4844152999994549;2385
189;0.48622339999928954;2386
190;0.48835999999937485;2386
191;0.490162699999928;2387
192;0.4921563999996579;2387
193;0.4941534000008687;2387
194;0.49615219999941473;2387
195;0.49815259999923;2387
196;0.5001506999997218;2388
197;0.5021737999995821;2388
198;0.5042382999999973;2389
199;0.5062326999996003;2389
200;0.5082318000004307;2390
201;0.5102036999996926;2390
202;0.5122680999993463;2391
203;0.5141710999996576;2391
204;0.5161740999992617;2391
205;0.5181709999997111;2392
206;0.5202332999997452;2393
207;0.5222147999993467;2393
208;0.5242343000008987;2393
209;0.5262235999998666;2394
210;0.5282141000006959;2395
211;0.5302723999993759;2395
212;0.5323086999997031;2396
213;0.5342977000000246;2397
214;0.537243299999318;2397
215;0.53923020000002;2397
216;0.5412395999992441;2398
217;0.5432285000006232;2398
218;0.5452292999998463;2399
219;0.5472305999992386;2399
220;0.5492269999995187;2400
221;0.5512433999992936;2400
222;0.5532602000002953;2400
223;0.5552291000003606;2401
224;0.5572269999993296;2401
225;0.5592051999992691;2401
226;0.5612980000005336;2401
227;0.564413300000524;2402
228;0.5663977999993222;2403
229;0.569318399999247;2404
230;0.5723961000003328;2405
231;0.5753987999996752;2405
232;0.5774103000003379;2406
233;0.5803890000006504;2407
234;0.5832783000005293;2407
235;0.5853941000004852;2407
236;0.5873578999999154;2408
237;0.5903758999993443;2408
238;0.5923662999994121;2409
239;0.5953628999995999;2409
240;0.598261299999649;2410
241;0.600362999999561;2410
242;0.6033129000006738;2410
243;0.6063644999994722;2411
244;0.6083651999997528;2411
245;0.6113600000007864;2412
246;0.6133583999999246;2413
247;0.6153756999992765;2414
248;0.6174150000006193;2414
249;0.6204001000005519;2414
250;0.6234108000007836;2415
251;0.6263935999995738;2416
252;0.6283445000008214;2417
253;0.6304118000007293;2418
254;0.6333850999999413;2418
255;0.6354004000004352;2419
256;0.6373681000004581;2419
257;0.6403661999993346;2419
258;0.6423575000007986;2420
259;0.6453588000003947;2420
260;0.6473877999997057;2421
261;0.6501776999994036;2421
262;0.6523732999994536;2422
263;0.6543982999992295;2422
264;0.6573396000003413;2423
265;0.6603864000007889;2424
266;0.663344300000972;2424
267;0.666402000000744;2425
268;0.6692775000010442;2425
269;0.6713868000006187;2426
270;0.6744008000005124;2426
271;0.6774024999995163;2427
272;0.6793588000000454;2428
273;0.6823239000004833;2428
274;0.6853313999999955;2429
275;0.687369100000069;2429
276;0.6903548999998748;2430
277;0.6933547999997245;2431
278;0.6953653000000486;2431
279;0.6984100000008766;2432
280;0.7013452000010147;2433
281;0.7043964000004053;2433
282;0.7064059999993333;2434
283;0.7093598000010388;2435
284;0.7123535000009724;2436
285;0.7153613999998925;2436
286;0.7173521000004257;2437
287;0.7202770000003511;2438
288;0.7223367000005965;2438
289;0.7254033999997773;2439
290;0.7273872999994637;2439
291;0.730356899999606;2440
292;0.7323567000003095;2441
293;0.7343572999998287;2442
294;0.7362307000003057;2442
295;0.7383031000008486;2443
296;0.7402412999999797;2443
297;0.7422604999992473;2443
298;0.7442394999998214;2444
299;0.7463502000009612;2444
300;0.7493307999993704;2445
301;0.7513321999995242;2446
302;0.7533872999993037;2447
303;0.7563699000002089;2447
304;0.7593885000005685;2448
305;0.762397399999827;2448
306;0.7653857999994216;2449
307;0.7683937000001606;2450
308;0.7714396999999735;2451
309;0.7734178999999131;2452
310;0.7764186999993399;2453
311;0.7793139000004885;2454
312;0.7813062999994145;2454
313;0.7843011000004481;2455
314;0.7862822999995842;2455
315;0.78830200000084;2456
316;0.79030210000019;2456
317;0.792307300000175;2457
318;0.7942311000006157;2457
319;0.7962864000000991;2457
320;0.7982823000002099;2458
321;0.8002835999996023;2458
322;0.8023725000002742;2459
323;0.80438470000081;2459
324;0.8063839000005828;2459
325;0.8083645999995497;2459
326;0.8103695999998308;2460
327;0.8123577999995177;2461
328;0.8143851999993785;2461
329;0.8174376000006305;2462
330;0.8203890999993746;2463
331;0.8233799999998155;2463
332;0.8262842999993154;2464
333;0.8282842999997229;2464
334;0.830333600000813;2465
335;0.8333347999996477;2465
336;0.836352899999838;2466
337;0.8384005000007164;2467
338;0.8413540000001376;2467
339;0.8433932000007189;2468
340;0.8463597000009031;2469
341;0.8494014000007155;2469
342;0.8523478000006435;2470
343;0.8544051999997464;2471
344;0.8573969999997644;2471
345;0.8604109000007156;2472
346;0.8634001000009448;2473
347;0.8664134999999078;2474
348;0.8692685999994865;2475
349;0.8713884000007965;2476
350;0.8734162000000651;2477
351;0.8763997000005475;2477
352;0.8794039000003977;2478
353;0.8824008999999933;2479
354;0.8853918999993766;2480
355;0.8873915999993187;2481
356;0.8903965000008611;2481
357;0.8934064000004582;2482
358;0.8964109999997163;2482
359;0.899397900000622;2483
360;0.9023639999995794;2484
361;0.9043954000007943;2485
362;0.9064087999995536;2485
363;0.9094024000005447;2486
364;0.9123971000008169;2487
365;0.9154128999998647;2487
366;0.9183972999999241;2488
367;0.9204198999996152;2488
368;0.9233954999999696;2489
369;0.9263900999994803;2490
370;0.929398800000854;2491
371;0.9323786000004475;2492
372;0.9354065999996237;2493
373;0.9374157000002015;2494
374;0.9404111000003468;2494
375;0.9423922999994829;2494
376;0.9454124999992928;2494
377;0.9483827000003657;2495
378;0.9513944999998785;2496
379;0.9533671000008326;2497
380;0.956401299999925;2497
381;0.959407000000283;2498
382;0.9623967000006814;2499
383;0.9654064000005746;2499
384;0.9683893000001262;2500
385;0.9714113000009093;2500
386;0.9743899999994028;2501
387;0.9764114000008703;2502
388;0.9793845000003785;2503
389;0.9813838999998552;2503
390;0.9833438000005117;2503
391;0.9853896999993594;2504
392;0.9873086000006879;2504
393;0.9892472000010457;2505
394;0.9912275000006048;2504
395;0.9932262000002083;2505
396;0.9952124999999796;2505
397;0.9972453999998834;2505
398;0.9992332000001625;2506
399;1.0011706000004779;2506
400;1.0033698999995977;2506
401;1.005232800000158;2506
402;1.0072634999996808;2507
403;1.0093324000008579;2507
404;1.0113197000009677;2507
405;1.0132668999995076;2508
406;1.0152785999998741;2509
407;1.017280899999605;2509
408;1.019183599999451;2509
409;1.0212811000001238;2509
410;1.0232811000005313;2509
411;1.025277200000346;2510
412;1.0272750000003725;2510
413;1.0292798000009498;2510
414;1.0312716999997065;2510
415;1.0332725000007486;2511
416;1.0353023000006942;2511
417;1.0373388000007253;2511
418;1.0403346000002784;2512
419;1.0423372999994172;2513
420;1.044356800000969;2513
421;1.0463552000001073;2514
422;1.0493907000000036;2514
423;1.0514411999993172;2514
424;1.0533121999997093;2515
425;1.055360300000757;2515
426;1.0583655999998882;2515
427;1.0603633000009722;2516
428;1.0623756000004505;2516
429;1.0644052999996347;2517
430;1.066391800000929;2517
431;1.0692163000003347;2517
432;1.071305299999949;2518
433;1.073392700000113;2518
434;1.0763528999996197;2519
435;1.0783945999992284;2519
436;1.0803864000008616;2519
437;1.0823617999994894;2520
438;1.0842855000009877;2520
439;1.086341899999752;2520
440;1.0883742999994865;2520
441;1.0903995999997278;2521
442;1.0923672999997507;2521
443;1.094363100000919;2522
444;1.0963604000007763;2522
445;1.0983845999999176;2522
446;1.1003949000005377;2522
447;1.1033944000009797;2523
448;1.1063663000004453;2523
449;1.1083835999997973;2524
450;1.110370200000034;2524
451;1.1123877999998513;2524
452;1.114259800000582;2524
453;1.1173641000004864;2525
454;1.119183200000407;2525
455;1.1213738999995257;2525
456;1.1243771000008564;2525
457;1.1263686000002053;2525
458;1.1293693999996322;2526
459;1.1324172999993607;2526
460;1.135398599999462;2526
461;1.137425799999619;2526
462;1.1393970000008267;2527
463;1.1423830999992788;2527
464;1.1444105000009586;2527
465;1.1474015999992844;2528
466;1.1493669999999838;2528
467;1.1513983000004373;2528
468;1.1544018999993568;2528
469;1.1573893999993743;2529
470;1.1604072999998607;2529
471;1.1624317000005249;2529
472;1.1653999000009208;2529
473;1.1674003999996785;2530
474;1.1693199000001187;2530
475;1.1714155999998184;2530
476;1.1734040999999706;2531
477;1.1754244000003382;2531
478;1.17738350000036;2531
479;1.1803906000004645;2532
480;1.182406899999478;2532
481;1.184432399999423;2532
482;1.1874000000007072;2533
483;1.1894377999997232;2533
484;1.1914572000005137;2533
485;1.194437600001038;2533
486;1.1974537000005512;2534
487;1.200431600000229;2535
488;1.2033934999999474;2535
489;1.2064492000008613;2535
490;1.208428100000674;2536
491;1.210442100000364;2536
492;1.2124172000003455;2536
493;1.2154147000001103;2536
494;1.2174374000005628;2536
495;1.2204141000001982;2537
496;1.2233931000009761;2537
497;1.2263960000000225;2537
498;1.2283944999999221;2537
499;1.2313857999997708;2537
500;1.234418199999709;2537
501;1.2362902999993821;2538
502;1.2384283000010328;2538
503;1.240415899999789;2537
504;1.242423300000155;2538
505;1.2444157999998424;2538
506;1.246400399999402;2538
507;1.2484029999995983;2538
508;1.2503933999996661;2539
509;1.253353000000061;2538
510;1.2564345999999205;2539
511;1.2594243999992614;2539
512;1.2623698000006698;2539
513;1.2654301000002306;2539
514;1.268406799999866;2540
515;1.2714458999998897;2540
516;1.2734335999994073;2540
517;1.2764005000008183;2540
518;1.279413199999908;2540
519;1.281412000000273;2540
520;1.2844012999994447;2541
521;1.2874210000009043;2541
522;1.2904197000007116;2541
523;1.2934263999995892;2541
524;1.2953969000009238;2541
525;1.2983875000008993;2541
526;1.3014247999999498;2541
527;1.3033219000008103;2541
528;1.3054222000009759;2542
529;1.3074354000000312;2542
530;1.309409900000901;2542
531;1.3114101999999548;2542
532;1.3133983000006992;2542
533;1.3154051000001346;2542
534;1.317420299999867;2542
535;1.319325200000094;2542
536;1.3214224999992439;2542
537;1.3234143000008771;2542
538;1.3254321999993408;2542
539;1.327436999999918;2542
540;1.3294232000007469;2542
541;1.3314009999994596;2543
542;1.3334080000004178;2543
543;1.335418300001038;2543
544;1.3374242999998387;2543
545;1.339407299999948;2542
546;1.3424128999995446;2542
547;1.3444144000004599;2542
548;1.3464438999999402;2542
549;1.3484110999997938;2542
550;1.3514169000009133;2542
551;1.3534412999997585;2542
552;1.3554356999993615;2542
553;1.3574277999996411;2542
554;1.3604021000010107;2542
555;1.363434500000949;2543
556;1.3654268999998749;2543
557;1.3684180000000197;2543
558;1.3704287000000477;2543
559;1.3727259000006597;2543
560;1.3754829000008613;2543
561;1.3783978000010393;2543
562;1.3803824000005989;2542
563;1.3823861000000761;2542
564;1.3843878999996377;2542
565;1.3863015999995696;2543
566;1.3894170000003214;2543
567;1.391425400001026;2543
568;1.3934162000005017;2543
569;1.3954168000000209;2543
570;1.3973578000004636;2543
571;1.3993931000004523;2543
572;1.4023880999993708;2543
573;1.4054338000005373;2542
574;1.4074194999993779;2542
575;1.4094196999994892;2542
576;1.4113883000009082;2542
577;1.4134083000008104;2542
578;1.4154349000000366;2542
579;1.4183995000003051;2543
580;1.4204074999997829;2543
581;1.4234178999995493;2543
582;1.4254106000007596;2543
583;1.4274242000010418;2543
584;1.4294138999994175;2542
585;1.4313980000006268;2542
586;1.433396200000061;2542
587;1.4362901000004058;2542
588;1.4384353000004921;2542
589;1.4404138999998395;2542
590;1.4423939999996946;2541
591;1.4454294000006485;2542
592;1.4474301999998715;2542
593;1.4504065000000992;2542
594;1.4523841999998695;2542
595;1.4544256000008318;2542
596;1.4564007999997557;2542
597;1.4583889000005001;2542
598;1.460383900001034;2542
599;1.4623840000003838;2542
600;1.4643873999993957;2541
601;1.4663806999997178;2541
602;1.4684417999997095;2541
603;1.470426600000792;2541
604;1.4724378000009892;2542
605;1.474404599999616;2542
606;1.4774247000004834;2542
607;1.4794249999995372;2542
608;1.4824284999995143;2542
609;1.484363300000041;2541
610;1.487374300000738;2541
611;1.4893554999998742;2541
612;1.4913517000004504;2541
613;1.4933560000008583;2540
614;1.4963943000002473;2540
615;1.498435999999856;2540
616;1.5004177000009804;2540
617;1.5023354999993899;2541
618;1.5044275000000198;2540
619;1.507460999999239;2540
620;1.5094260000005306;2540
621;1.5114128999994136;2540
622;1.5133918000010453;2540
623;1.5154029000004812;2540
624;1.5174248999992415;2539
625;1.5204162000009092;2539
626;1.5224276999997528;2540
627;1.5244079999993119;2539
628;1.5264191000005667;2540
629;1.5284233000002132;2540
630;1.5304233999995631;2540
631;1.5324457999995502;2540
632;1.535410899999988;2540
633;1.5374413000008644;2540
634;1.5394154999994498;2540
635;1.541438800000833;2540
636;1.5433950999995432;2539
637;1.5454086999998253;2539
638;1.5474522999993496;2539
639;1.5494245999998384;2539
640;1.5513836999998603;2538
641;1.5534103999998479;2538
642;1.55542400000013;2538
643;1.5574197999994794;2538
644;1.5594435000002704;2539
645;1.56143449999945;2539
646;1.5634076000005734;2538
647;1.565412899999501;2538
648;1.5684211999996478;2538
649;1.570428200000606;2538
650;1.5724227000009705;2538
651;1.5743860000002314;2537
652;1.5764135999997961;2537
653;1.5783946999999898;2537
654;1.580383200000142;2537
655;1.5823870999993233;2537
656;1.5843220999995538;2537
657;1.5862981000009313;2537
658;1.5883620000004157;2537
659;1.5903656000009505;2538
660;1.592362299999877;2538
661;1.594359799999438;2537
662;1.596372899999551;2537
663;1.5983969000008074;2537
664;1.6004252000002452;2537
665;1.6023686000007729;2537
666;1.604412799999409;2536
667;1.6063893999998982;2536
668;1.6083975000001374;2536
669;1.6104481000002124;2536
670;1.612423200000194;2536
671;1.6143379000004643;2536
672;1.6164243000002898;2536
673;1.6184233999993012;2536
674;1.6204238000009354;2536
675;1.622410399999353;2536
676;1.6244225000009465;2536
677;1.626421400000254;2536
678;1.6284216999993077;2536
679;1.6314366000005975;2536
680;1.634427400000277;2536
681;1.6363302999998268;2536
682;1.6384283999996114;2536
683;1.6404208999992989;2536
684;1.6424428999998781;2536
685;1.6444412000000739;2536
686;1.6463714000001346;2536
687;1.6483248000004096;2536
688;1.650315099999716;2535
689;1.6522757000002457;2535
690;1.6542804000000615;2535
691;1.6562742999994953;2535
692;1.6582787999996071;2535
693;1.6602834000004805;2535
694;1.6622917000004236;2535
695;1.6643033000000287;2535
696;1.666300599999886;2535
697;1.6683038000010129;2534
698;1.6702586000010342;2534
699;1.672254499999326;2534
700;1.6742575999996916;2534
701;1.6762636000003113;2534
702;1.6782514999995328;2534
703;1.6802504000006593;2534
704;1.6822505000000092;2534
705;1.6842751000003773;2533
706;1.6873068000004423;2533
707;1.6892662000009295;2533
708;1.6912661000005755;2533
709;1.6932534000006854;2533
710;1.695253899999443;2533
711;1.6974269000002096;2533
712;1.699409700000615;2533
713;1.70138340000085;2533
714;1.7034045000000333;2533
715;1.7054272999994282;2532
