;time;amplitude
0;0.0034415999998600455;2443
1;0.006041900000127498;2444
2;0.009458200000153738;2445
3;0.013058700000328827;2445
4;0.016013200000088545;2446
5;0.01906099999905564;2447
6;0.02201459999923827;2448
7;0.02550630000041565;2449
8;0.02967249999892374;2449
9;0.033356199999616365;2451
10;0.037389199998870026;2451
11;0.04139209999993909;2452
12;0.04542790000050445;2454
13;0.049092499999460415;2455
14;0.052313099999082624;2455
15;0.05631129999892437;2456
16;0.060274999999819556;2457
17;0.06414029999905324;2458
18;0.06861120000030496;2458
19;0.07257670000035432;2459
20;0.07660430000032648;2460
21;0.08003710000048159;2461
22;0.08444369999961054;2461
23;0.08832489999986137;2463
24;0.09234879999894474;2463
25;0.0955562999988615;2464
26;0.09903069999927538;2465
27;0.10188670000025013;2466
28;0.10488570000052277;2466
29;0.1078204999994341;2466
30;0.11084949999894889;2467
31;0.11388679999981832;2467
32;0.11739949999901;2468
33;0.1213793999995687;2469
34;0.12538839999979245;2470
35;0.12938310000026831;2471
36;0.13205589999961376;2471
37;0.1352563000000373;2471
38;0.13829859999896144;2472
39;0.1411891999996442;2472
40;0.14419490000000224;2473
41;0.14685370000006515;2473
42;0.15013700000054087;2473
43;0.1531420999999682;2474
44;0.1559797999998409;2475
45;0.1589934000003268;2475
46;0.16187770000033197;2475
47;0.1649665000004461;2475
48;0.1683407000000443;2476
49;0.17255780000050436;2476
50;0.17650189999949362;2476
51;0.17884670000057667;2477
52;0.1824797999997827;2477
53;0.18644970000059402;2477
54;0.19039340000017546;2478
55;0.19440919999942707;2478
56;0.1969915999998193;2478
57;0.2001058000005287;2478
58;0.2029339999990043;2478
59;0.20592709999982617;2479
60;0.2092293999994581;2479
61;0.21313539999937348;2479
62;0.21654449999914505;2479
63;0.220490300000165;2479
64;0.22410499999932654;2480
65;0.2274037999995926;2479
66;0.23138579999977082;2480
67;0.23530720000053407;2479
68;0.2393357000000833;2480
69;0.24341819999972358;2480
70;0.24708409999948344;2479
71;0.2514322999995784;2479
72;0.2552520999997796;2479
73;0.2593701999994664;2479
74;0.2629851999990933;2479
75;0.2663587000006373;2478
76;0.27046469999913825;2478
77;0.2743492999998125;2478
78;0.278424799998902;2478
79;0.28138229999967734;2478
80;0.28530379999938305;2478
81;0.2881531000002724;2478
82;0.29110450000007404;2477
83;0.2939499000003707;2477
84;0.2983874999990803;2477
85;0.3026365999994596;2476
86;0.30745290000049863;2477
87;0.31143469999915396;2476
88;0.31529930000033346;2476
89;0.3191738000004989;2476
90;0.3220235999997385;2476
91;0.325053200000184;2476
92;0.32819329999983893;2476
93;0.33124169999973674;2475
94;0.33499230000052194;2476
95;0.3383875999988959;2475
96;0.34240349999890896;2475
97;0.3462885999997525;2474
98;0.3499840000004042;2474
99;0.3528630000000703;2474
100;0.35477630000059435;2473
101;0.35709809999934805;2473
102;0.36006889999953273;2472
103;0.36273479999908886;2472
104;0.3650837000004685;2472
105;0.3680765999997675;2472
106;0.37082879999979923;2471
107;0.37385249999897496;2471
108;0.37687109999933455;2470
109;0.3797532999997202;2470
110;0.38330909999967844;2470
111;0.38628719999906025;2469
112;0.38916559999961464;2468
113;0.3920075000005454;2468
114;0.3950055000004795;2468
115;0.3979629000004934;2467
116;0.4011499999996886;2467
117;0.4041068999995332;2466
118;0.40720499999952153;2466
119;0.4101532999993651;2465
120;0.4127848999996786;2465
121;0.41584770000008575;2465
122;0.41909519999899203;2464
123;0.4221008999993501;2464
124;0.4251203000003443;2463
125;0.42813980000028096;2463
126;0.4311416000000463;2462
127;0.43413460000010673;2461
128;0.43712649999906716;2461
129;0.4401323999991291;2460
130;0.44313060000058613;2460
131;0.44600589999936346;2460
132;0.44913219999943976;2459
133;0.45212700000047334;2459
134;0.4551480999998603;2457
135;0.45813450000059674;2457
136;0.4607663999995566;2456
137;0.46413620000021183;2456
138;0.4671323000002303;2455
139;0.4701272999991488;2454
140;0.47313869999925373;2453
141;0.4760317000000214;2453
142;0.47890019999977085;2452
143;0.4821690999997372;2451
144;0.4849677000001975;2451
145;0.48822149999978137;2450
146;0.4911599999995815;2449
147;0.4939290999991499;2448
148;0.49691510000047856;2447
149;0.4998469000001933;2447
150;0.5018466999990778;2447
151;0.5048525999991398;2446
152;0.5068563999993785;2445
153;0.5087915000003704;2445
154;0.5118985999997676;2444
155;0.5148563000002468;2444
156;0.516814799999338;2443
157;0.5188237999991543;2442
158;0.5206159999997908;2442
159;0.52257119999922;2441
160;0.5246021000002656;2441
161;0.5266059999994468;2441
162;0.5285948999990069;2440
163;0.5306541999998444;2440
164;0.5326231999988522;2439
165;0.5347865000003367;2439
166;0.536669900000561;2438
167;0.5386951000000408;2437
168;0.5406774999992194;2437
169;0.5427681999990455;2436
170;0.5459950000004028;2436
171;0.5488286999989214;2435
172;0.5524014000002353;2434
173;0.5564143999999942;2433
174;0.5601728000001458;2432
175;0.5627299999996467;2431
176;0.566064999999071;2431
177;0.568967999999586;2430
178;0.571969499998886;2429
179;0.5751426999995601;2428
180;0.5780092000004515;2427
181;0.581070300000647;2426
182;0.5838088000000425;2425
183;0.5868172999998933;2424
184;0.589811899999404;2423
185;0.5928485999993427;2423
186;0.5959972000000562;2422
187;0.5990368000002491;2421
188;0.6018337999994401;2420
189;0.6048422000003484;2419
190;0.6083849999995437;2419
191;0.6111046000005445;2418
192;0.6140199000001303;2417
193;0.6170447999993485;2417
194;0.6200900999992882;2416
195;0.6229170000005979;2415
196;0.6259338999989268;2414
197;0.6287295999991329;2414
198;0.6318842999990011;2413
199;0.6355290999999852;2412
200;0.6393301999996766;2411
201;0.643361399999776;2410
202;0.6483353000003262;2409
203;0.6521437999999762;2408
204;0.6551445000004605;2407
205;0.6581456000003527;2407
206;0.6609626999998;2406
207;0.6641094000005978;2406
208;0.666917900000044;2405
209;0.6699195999990479;2404
210;0.6729440999988583;2403
211;0.6759421000006114;2402
212;0.6788735999998607;2402
213;0.6811925000001793;2401
214;0.6852608999997756;2400
215;0.6883170000000973;2400
216;0.6911457000005612;2399
217;0.6937569000001531;2398
218;0.6956222999997408;2397
219;0.6977284999993572;2397
220;0.6997246999999334;2397
221;0.7017225999989023;2396
222;0.70372529999986;2396
223;0.7057313999994221;2395
224;0.7076759999999922;2394
225;0.7097071999996842;2393
226;0.7118200000004435;2393
227;0.7139667999999801;2393
228;0.7173332999991544;2392
229;0.7211495999999897;2391
230;0.7247010999999475;2390
231;0.7267881999996462;2389
232;0.7291038999992452;2389
233;0.7320705000001908;2388
234;0.7350635999991937;2388
235;0.7380758999988757;2387
236;0.7408952000005229;2386
237;0.7439467000003788;2386
238;0.7469015999995463;2385
239;0.7499141999996937;2384
240;0.7529027999989921;2384
241;0.7558243999992555;2383
242;0.7594601999990118;2382
243;0.7630350999988877;2381
244;0.7663357999990694;2381
245;0.770491100000072;2380
246;0.7733525000003283;2379
247;0.7774026000006415;2379
248;0.7813962000000174;2378
249;0.7852444000000105;2378
250;0.7878431999997701;2377
251;0.7914249000004929;2376
252;0.795407300000079;2376
253;0.7983657999993738;2376
254;0.8019351999992068;2375
255;0.8053340999995271;2375
256;0.80931579999924;2374
257;0.8121348999993643;2374
258;0.8151042999998026;2374
259;0.817780400000629;2373
260;0.8209172999995644;2372
261;0.8242336000002979;2372
262;0.8284184999993158;2371
263;0.8324300000003859;2371
264;0.8364519999995537;2370
265;0.8404336000003241;2369
266;0.8441411999992852;2369
267;0.8481007999998837;2368
268;0.8509025000003021;2368
269;0.8541050999992876;2367
270;0.8568457999990642;2367
271;0.8598053000005166;2367
272;0.8627262999998493;2367
273;0.8648429999993823;2366
274;0.8677905000004102;2366
275;0.8707660000000033;2365
276;0.8727810999989742;2365
277;0.8747784999995929;2365
278;0.8778287999994063;2364
279;0.8798029999998107;2364
280;0.8828295999992406;2364
281;0.8858235999996396;2364
282;0.8878217999990738;2364
283;0.890822899998966;2364
284;0.893834099999367;2364
285;0.8967665000000125;2364
286;0.8997877000001608;2364
287;0.9017769999991287;2364
288;0.9037792999988596;2364
289;0.9057837999989715;2364
290;0.9078207999991719;2364
291;0.9107836999992287;2364
292;0.9126759999999194;2364
293;0.9157508999996935;2364
294;0.917785499999809;2363
295;0.9197807999989891;2363
296;0.921750699999393;2363
297;0.926226300000053;2364
298;0.9294687999990856;2363
299;0.9317589999991469;2363
300;0.9337729999988369;2364
301;0.9357617999994545;2364
302;0.9378125999992335;2364
303;0.93981039999926;2364
304;0.9420262999992701;2364
305;0.9451417999989644;2364
306;0.9482313999997132;2364
307;0.9523121000001993;2365
308;0.9562998000001244;2365
309;0.959053299999141;2365
310;0.9621344999995927;2365
311;0.9650418000001082;2365
312;0.9680518000004668;2365
313;0.9710529000003589;2365
314;0.974054199999955;2365
315;0.9771510999999009;2365
316;0.9811881999994512;2365
317;0.9841882999990048;2365
318;0.9871528999992734;2365
319;0.9901396000004752;2365
320;0.9931691999991017;2365
321;0.995745899999747;2365
322;0.9977958999988914;2366
323;0.9996744000000035;2366
324;1.0015984999990906;2366
325;1.0036203999989084;2365
326;1.0058021000004373;2365
327;1.0078173000001698;2365
328;1.010894900000494;2366
329;1.0127167999999074;2366
330;1.014959899999667;2366
331;1.0166434000002482;2366
332;1.0188591000005545;2366
333;1.0208421999996062;2366
334;1.022846899999422;2366
335;1.0248367999993206;2366
336;1.0268624000000273;2366
337;1.029737799999566;2367
338;1.0328955000004498;2367
339;1.0359556999992492;2367
340;1.0389665999991848;2367
341;1.0419390000006388;2368
342;1.0449628999995184;2368
343;1.0479756000004272;2368
344;1.0509065999995073;2368
345;1.0539047999991453;2369
346;1.0569171000006463;2369
347;1.05997650000063;2369
348;1.0627624999997352;2370
349;1.0657577000001766;2370
350;1.0679567999995925;2370
351;1.070948700000372;2371
352;1.07396080000035;2371
353;1.077089899999919;2372
354;1.0798374999994849;2372
355;1.0829193999998097;2372
356;1.0859457999995357;2373
357;1.088904199999888;2373
358;1.0919346999999107;2374
359;1.0947992999990674;2374
360;1.0979558999988512;2374
361;1.100948999999673;2375
362;1.1039526000004116;2375
363;1.106949099999838;2376
364;1.1099443999992218;2376
365;1.1128093999996054;2377
366;1.1148116000003938;2378
367;1.1167038999992656;2378
368;1.118792699999176;2378
369;1.1207861000002595;2378
370;1.12299129999883;2379
371;1.1259842999988905;2379
372;1.1289711999997962;2380
373;1.1320369000004575;2381
374;1.1349921000000904;2381
375;1.1381007999989379;2382
376;1.1411380999998073;2382
377;1.1441269999995711;2383
378;1.1471216999998433;2384
379;1.1501107000003685;2384
380;1.1531018999994558;2385
381;1.1561153999991802;2386
382;1.1591109999990294;2386
383;1.162123199999769;2387
384;1.1651271999999153;2388
385;1.1681191999996372;2389
386;1.1711374999995314;2389
387;1.174097499999334;2390
388;1.1771162999993976;2390
389;1.179947099999481;2391
390;1.1831218999996054;2392
391;1.1861138999993273;2392
392;1.1891118999992614;2393
393;1.1921136999990267;2394
394;1.1950791999988724;2395
395;1.1981118000003335;2395
396;1.2010405999990326;2396
397;1.2041143000005832;2397
398;1.2071304000000964;2398
399;1.2101244000004954;2399
400;1.212743699999919;2399
401;1.2161230999990948;2400
402;1.2191205999988597;2401
403;1.2220810999988316;2402
404;1.2251101000001654;2402
405;1.2281235999998898;2403
406;1.23108990000037;2404
407;1.2341252000005625;2405
408;1.2371131999989302;2406
409;1.240122600000177;2407
410;1.243114599999899;2407
411;1.2458026000003883;2408
412;1.2491188000003604;2409
413;1.2521178999995755;2410
414;1.2546652000000904;2411
415;1.256839100000434;2411
416;1.2587822999994387;2412
417;1.2607821000001422;2412
418;1.2637954000001628;2413
419;1.2658556000005774;2413
420;1.2678897000005236;2414
421;1.2708915999992314;2414
422;1.2743845000004512;2415
423;1.278406499999619;2415
424;1.280931999999666;2417
425;1.2840916000004654;2417
426;1.28841569999895;2418
427;1.2924027999997634;2419
428;1.2959258999999292;2420
429;1.2989861000005476;2421
430;1.3020321000003605;2422
431;1.3059610000000248;2422
432;1.3093745000005583;2423
433;1.3118572000003041;2423
434;1.315230899999733;2424
435;1.3181765999997879;2425
436;1.321162500000355;2426
437;1.324152099999992;2426
438;1.3271642999989126;2427
439;1.3298512999990635;2428
440;1.332853800000521;2428
441;1.3360450999989553;2429
442;1.3390811999997823;2431
443;1.3420895999988716;2431
444;1.346087300000363;2432
445;1.3492162000002281;2434
446;1.352180199999566;2434
447;1.3552354000003106;2435
448;1.3581441000005725;2437
449;1.361232299999756;2438
450;1.3640152999996644;2438
451;1.367149800000334;2439
452;1.3702037000002747;2440
453;1.373177499999656;2441
454;1.3761426999990363;2442
455;1.3791858999993565;2443
456;1.382341099999394;2443
457;1.3864310999997542;2444
458;1.3903996999997617;2445
459;1.3944111999990128;2446
460;1.398343599999862;2448
461;1.4024033999994572;2448
462;1.4064085999998497;2449
463;1.410323599999174;2450
464;1.412933499999781;2451
465;1.4163398000000598;2452
466;1.4204064999994443;2453
467;1.4243977999994968;2454
468;1.428016599998955;2454
469;1.4314168999990216;2455
470;1.4354081000001315;2456
471;1.4394042000003537;2457
472;1.4434115999993082;2457
473;1.4459401000003709;2458
474;1.4493547999991279;2458
475;1.4534077999996953;2459
476;1.4574085999993258;2460
477;1.461430899998959;2460
478;1.4643820999990567;2461
479;1.4683504000004177;2462
480;1.472406900000351;2462
481;1.476411999999982;2464
482;1.4799471999995149;2464
483;1.4833490999990318;2465
484;1.4874024000000645;2465
485;1.4909336999990046;2466
486;1.4941749999998137;2466
487;1.4971764999991137;2467
488;1.5000732999997126;2467
489;1.5030970999996498;2468
490;1.5058381999988342;2468
491;1.5090037999998458;2468
492;1.5120604999992793;2469
493;1.5150059999996301;2469
494;1.518115900000339;2470
495;1.5210929999993823;2471
496;1.5239251000002696;2471
497;1.5268799999994371;2472
498;1.52878839999903;2472
499;1.5308483999997406;2473
500;1.5328188999992562;2473
501;1.5359207000001334;2473
502;1.539156799999546;2473
503;1.5429232000005868;2474
504;1.545894999999291;2475
505;1.5493260999992344;2475
506;1.5522796000004746;2475
507;1.5552883999989717;2476
508;1.5582868000001326;2476
509;1.561367700000119;2476
510;1.5642719999996189;2477
511;1.567189800000051;2477
512;1.570163099999263;2477
513;1.5732019999995828;2477
514;1.5760055999999167;2477
515;1.5789160000003903;2478
516;1.5820827999996254;2478
517;1.5850981999992655;2478
518;1.588097399999242;2478
519;1.5911245999996027;2478
520;1.593963299999814;2478
521;1.5971263999999792;2478
522;1.6001113999991503;2478
523;1.6031010999995488;2478
524;1.606092099998932;2478
525;1.6091029999988677;2479
526;1.6121057999989716;2479
527;1.615113800000472;2479
528;1.6180242999998882;2479
529;1.6210960999997042;2479
530;1.6241248000005726;2479
531;1.6271034000001237;2479
532;1.6302355999996507;2479
533;1.6327376999997796;2479
534;1.6347210000003543;2479
535;1.6366883999999118;2479
536;1.640133999999307;2479
537;1.6431185999990703;2479
538;1.6456367999999202;2478
539;1.6479041000002326;2478
540;1.6497693000001163;2479
541;1.6518037999994704;2479
542;1.6537714000005508;2479
543;1.6557959000001574;2479
544;1.6588314999989962;2478
545;1.660779800000455;2478
546;1.6627482999992935;2479
547;1.6659049999998388;2478
548;1.6688610000001063;2478
549;1.6708196999989013;2477
550;1.6743480999994063;2477
551;1.6783734999989974;2477
552;1.6811870000001363;2477
553;1.684210699999312;2476
554;1.687226500000179;2476
555;1.6901882999991358;2476
556;1.6930413999998564;2475
557;1.6958842999993067;2475
558;1.699118799999269;2474
559;1.7021155999991606;2475
560;1.7051147999991372;2474
561;1.7081390000003012;2474
562;1.7111440999997285;2473
563;1.7138237999988633;2473
564;1.7158414000004996;2472
565;1.7177879999999277;2473
566;1.719868199999837;2472
567;1.7228562000000238;2472
568;1.724789599998985;2472
569;1.7278922000004968;2471
570;1.7309482000000571;2471
571;1.7344871000004787;2471
572;1.7385075000001962;2470
573;1.7425440999995772;2470
574;1.7460154999989754;2470
575;1.7494062000005215;2469
576;1.7534562999990158;2469
577;1.7574270999994042;2468
578;1.7609407999989344;2468
579;1.7644449999988865;2468
580;1.7682440999997198;2467
581;1.7722448000004078;2467
582;1.7752442000000883;2466
583;1.778154600000562;2465
584;1.7811789999996108;2465
585;1.7841647999994166;2465
586;1.7871666999999434;2465
587;1.79017340000064;2464
588;1.793166299999939;2464
589;1.795855099999244;2464
590;1.7991545999993832;2463
591;1.8021601999989798;2463
592;1.8051462000003085;2462
593;1.8081418999991001;2462
594;1.8111257000000478;2461
595;1.8141625999996904;2461
596;1.8171189999993658;2460
597;1.8201320999996824;2459
598;1.8231386999996175;2459
599;1.826126399999339;2458
600;1.8289659999991272;2457
601;1.8321209999994608;2457
602;1.8351332999991428;2457
603;1.8381289999997534;2456
604;1.8411237000000256;2455
605;1.844122000000425;2454
606;1.8471238999991328;2454
607;1.8501204999993206;2454
608;1.8531251000003977;2453
609;1.8561239999999088;2452
610;1.8591262999998435;2451
611;1.8621879999991506;2450
612;1.8651231000003463;2449
613;1.8681230999991385;2448
614;1.8709460999998555;2448
615;1.8741196999999374;2447
616;1.877130999999281;2446
617;1.8801263000004838;2446
618;1.883118800000375;2444
619;1.8859226000004128;2444
620;1.8888203999995312;2443
621;1.8920966000005137;2443
622;1.89510589999918;2442
623;1.898107400000299;2441
624;1.9010734999992565;2441
625;1.9041283000005933;2440
626;1.9071258000003581;2439
627;1.9101301999999123;2438
628;1.9128454000001511;2437
629;1.9161277000002883;2437
630;1.9191238000003068;2436
631;1.9221288999997341;2435
632;1.9251327000001766;2435
633;1.9281250000003638;2434
634;1.9311256000000867;2433
635;1.9338859999988927;2432
636;1.937161300000298;2432
637;1.9401221999996778;2431
638;1.9431406000003335;2430
639;1.945845799999006;2430
640;1.948893599999792;2429
641;1.9521458999988681;2428
642;1.9551295999990543;2427
643;1.958123999998861;2427
644;1.9611172999993869;2425
645;1.9641214999992371;2425
646;1.9671204000005673;2424
647;1.970124899999064;2423
648;1.9731204999989131;2422
649;1.976125499999398;2421
650;1.978909699999349;2421
651;1.9819790000001376;2420
652;1.9851237000002584;2419
653;1.9881212000000232;2418
654;1.991121099999873;2417
655;1.9941259999995964;2417
656;1.9971550999998726;2416
657;2.000119899999845;2415
658;2.0031254999994417;2414
659;2.0061198999992484;2414
660;2.0091221000002406;2413
661;2.0118315999989136;2412
662;2.015144799999689;2411
663;2.0181179999999586;2411
664;2.0211269999999786;2410
665;2.0241236000001663;2409
666;2.0271162999997614;2408
667;2.03015029999915;2407
668;2.0331225999998424;2407
669;2.03614430000016;2406
670;2.039121300000261;2405
671;2.0421317999989697;2405
672;2.045132100000046;2404
673;2.0481171999999788;2403
674;2.0510216999991826;2402
675;2.0541271999991295;2402
676;2.0571237999993173;2400
677;2.0598604999995587;2400
678;2.062909199999922;2399
679;2.06612049999967;2398
680;2.0691083000001527;2397
681;2.0720982999991975;2397
682;2.0751048999991326;2396
683;2.0780978000002506;2396
684;2.081031699999585;2395
685;2.083954100000483;2394
686;2.086972999999489;2393
687;2.0899759999992966;2393
688;2.092959999999948;2392
689;2.0958190000001196;2392
690;2.0990886999989016;2391
691;2.1020857999992586;2390
692;2.1050881999999547;2390
693;2.1081087999991723;2389
694;2.1108771999988676;2389
695;2.114168399999471;2388
696;2.1171216999991884;2388
697;2.120148699999845;2387
698;2.1231367999989743;2386
699;2.126146999999037;2386
700;2.12891689999924;2385
701;2.13217319999967;2384
702;2.1351524999990943;2384
703;2.1381495999994513;2383
704;2.141141599999173;2383
705;2.1438349000000017;2382
706;2.1458643000005395;2381
707;2.1478203000006033;2381
708;2.151127400000405;2380
709;2.154145399999834;2379
710;2.1571211999998923;2378
711;2.160168299998986;2378
712;2.1627981000001455;2377
713;2.166134900000543;2377
714;2.1691606999993382;2376
715;2.172473499998887;2375
716;2.1764958999992814;2375
717;2.179920000000493;2374
718;2.1832137999990664;2374
