;time;amplitude
0;0.003118200000244542;2430
1;0.006197500000780565;2430
2;0.01035270000102173;2429
3;0.014149700000416487;2428
4;0.01754819999950996;2427
5;0.021594899999399786;2427
6;0.025577100001100916;2427
7;0.0297883000002912;2427
8;0.032870000000912114;2426
9;0.035765900000114925;2426
10;0.03882789999988745;2425
11;0.04079660000024887;2425
12;0.042782700000316254;2425
13;0.04566820000036387;2425
14;0.04771140000048035;2425
15;0.04967450000003737;2424
16;0.051790299999993294;2424
17;0.05531090000113181;2423
18;0.058334800000011455;2423
19;0.062360899999475805;2422
20;0.06497219999982917;2421
21;0.06828420000056212;2421
22;0.07126179999977467;2420
23;0.07418479999978445;2419
24;0.07694869999977527;2419
25;0.07985270000062883;2418
26;0.08291420000023209;2418
27;0.08588880000024801;2417
28;0.08897199999955774;2417
29;0.09196719999999914;2417
30;0.09484130000055302;2416
31;0.09675720000086585;2416
32;0.0999615000000631;2415
33;0.10293610000007902;2415
34;0.10601459999998042;2414
35;0.10899079999944661;2414
36;0.11192990000017744;2413
37;0.11511389999941457;2413
38;0.11810530000002473;2412
39;0.1210862999996607;2411
40;0.1241159000001062;2411
41;0.12709460000041872;2410
42;0.12992540000050212;2410
43;0.13298779999968247;2410
44;0.1360874000001786;2409
45;0.13907470000049216;2409
46;0.1420670000006794;2409
47;0.14511320000019623;2408
48;0.14808269999957702;2408
49;0.15107420000094862;2408
50;0.1540774999994028;2407
51;0.15709199999946577;2407
52;0.16014840000025288;2406
53;0.16285530000095605;2406
54;0.1660888000005798;2405
55;0.1691291999995883;2405
56;0.17206889999943087;2405
57;0.1751125000009779;2404
58;0.17811989999972866;2403
59;0.18111880000105884;2403
60;0.18410799999946903;2403
61;0.18713639999987208;2403
62;0.1901412999995955;2403
63;0.1928951000008965;2402
64;0.19588930000099936;2402
65;0.19914240000071004;2402
66;0.20214739999937592;2402
67;0.2051355000003241;2401
68;0.20805789999940316;2401
69;0.21110460000090825;2401
70;0.21415859999979148;2401
71;0.217114600000059;2401
72;0.22012309999990975;2401
73;0.22315060000073572;2400
74;0.2261331000008795;2400
75;0.22915009999996983;2400
76;0.2321351999999024;2400
77;0.2351306000000477;2400
78;0.23813870000049064;2400
79;0.2411298999995779;2400
80;0.24415480000061507;2399
81;0.24714189999940572;2399
82;0.2501066999993782;2399
83;0.25313610000011977;2398
84;0.25601989999995567;2398
85;0.25914019999981974;2398
86;0.26211010000042734;2398
87;0.26512949999960256;2398
88;0.26815390000047046;2397
89;0.2708302000010008;2397
90;0.2740534000004118;2397
91;0.2769177000009222;2397
92;0.2796737000007852;2397
93;0.2815829000010126;2397
94;0.28358699999989767;2397
95;0.2856203999999707;2397
96;0.2876032000003761;2397
97;0.28972299999986717;2397
98;0.29162650000034773;2397
99;0.293629100000544;2397
100;0.29561869999997725;2397
101;0.2980325999997149;2397
102;0.3010180000001128;2397
103;0.30502920000071754;2397
104;0.3080322999994678;2397
105;0.3110560000004625;2398
106;0.31403820000014093;2398
107;0.31704890000037267;2398
108;0.31981919999998354;2398
109;0.3229812999998103;2399
110;0.32602399999996123;2399
111;0.3290797999998176;2399
112;0.33204099999966274;2399
113;0.33503940000082366;2399
114;0.33804310000050464;2399
115;0.34103999999933876;2400
116;0.34404970000105095;2400
117;0.34701379999933124;2400
118;0.3498075000006793;2400
119;0.35304030000042985;2400
120;0.35603959999934887;2400
121;0.359035400000721;2400
122;0.3620528000010381;2400
123;0.3651561999995465;2400
124;0.36804400000073656;2401
125;0.3710406999998668;2401
126;0.3740498999995907;2402
127;0.3770368999994389;2401
128;0.38004320000072767;2401
129;0.3830438000004506;2402
130;0.3860428999996657;2402
131;0.38904229999934614;2401
132;0.39204590000008466;2401
133;0.39503789999980654;2402
134;0.3980425000008836;2402
135;0.401046299999507;2402
136;0.404070500000671;2403
137;0.4070443000000523;2403
138;0.4100428000001557;2403
139;0.4128610999996454;2403
140;0.4160439999996015;2403
141;0.4190453000010166;2404
142;0.42202050000014424;2404
143;0.42514680000022054;2405
144;0.4278632000005018;2405
145;0.4311431999994966;2405
146;0.43413800000053016;2405
147;0.43714899999940826;2405
148;0.4401543000003585;2405
149;0.4431239000005007;2406
150;0.44579479999993055;2406
151;0.4491414000003715;2406
152;0.45213719999992463;2407
153;0.4551415999994788;2407
154;0.4581311000001733;2407
155;0.4611371999999392;2408
156;0.46413399999983085;2409
157;0.4671323000002303;2409
158;0.47014429999944696;2409
159;0.47313450000001467;2410
160;0.47613710000041465;2411
161;0.4791253000003053;2411
162;0.48214460000053805;2412
163;0.4851364999994985;2412
164;0.4881394000003638;2412
165;0.49084600000060163;2413
166;0.4938034000006155;2414
167;0.4968516999997519;2414
168;0.5003866000006383;2415
169;0.5042422999995324;2416
170;0.5073578000010457;2416
171;0.5103347999993275;2417
172;0.5128464999997959;2417
173;0.5159505999999965;2418
174;0.5189946999998938;2418
175;0.5219496999998228;2419
176;0.5249750000002678;2419
177;0.5278247999995074;2420
178;0.5308351000003313;2420
179;0.5341193000003841;2420
180;0.5370266999998421;2421
181;0.5400188000003254;2421
182;0.5430159999996249;2422
183;0.5457621999994444;2422
184;0.547737099999722;2423
185;0.5498621000006096;2423
186;0.5530006000008143;2423
187;0.5559914000004937;2424
188;0.5589935999996669;2424
189;0.5620395000005374;2425
190;0.5648521000002802;2425
191;0.5679916000008234;2425
192;0.5710443999996642;2426
193;0.5740249000009499;2426
194;0.5770148999999947;2426
195;0.5798353000009229;2427
196;0.5830103000007512;2428
197;0.5859968999993725;2428
198;0.5890187000004516;2428
199;0.5920884999995906;2428
200;0.5948162999993656;2429
201;0.5970170000000508;2430
202;0.6001374999996187;2430
203;0.6031473000002734;2431
204;0.6059194000008574;2432
205;0.6089697000006709;2432
206;0.6119197000007262;2432
207;0.6151509999999689;2432
208;0.6181527999997343;2432
209;0.6211619000005157;2433
210;0.6239645000005112;2433
211;0.6269640999998956;2433
212;0.6297553000003973;2434
213;0.6329392000006919;2434
214;0.6365084999997634;2434
215;0.6405040000008739;2435
216;0.6439766000003146;2435
217;0.6472444999999425;2436
218;0.6503484000004391;2437
219;0.6531809000007343;2437
220;0.6561768000010488;2437
221;0.6592259999997623;2438
222;0.6621360999997705;2438
223;0.6651206000005914;2439
224;0.6681268000011187;2439
225;0.6711171000006289;2440
226;0.6739491000007547;2440
227;0.6769193000000087;2440
228;0.679988100000628;2441
229;0.6833439000001817;2441
230;0.6872065999996266;2443
231;0.6909164999997301;2443
232;0.6942101999993611;2444
233;0.6971683000010671;2444
234;0.7001784000003681;2444
235;0.7029555999997683;2445
236;0.7072989999996935;2446
237;0.7113955000004353;2447
238;0.7158866000008857;2447
239;0.7209438999998383;2447
240;0.7241771000008157;2448
241;0.7286678000000393;2448
242;0.7323618000009446;2448
243;0.7369204000005993;2449
244;0.7413931000010052;2449
245;0.7459545000001526;2449
246;0.7493840000006458;2449
247;0.7539068999994925;2450
248;0.7576757000006182;2450
249;0.761698800000886;2450
250;0.7657154000007722;2451
251;0.7697471999999834;2450
252;0.7733174999993935;2451
253;0.7776929999999993;2451
254;0.7816376000009768;2451
255;0.7856909000001906;2450
256;0.789649800000916;2451
257;0.7936554000007163;2451
258;0.7971543000003294;2452
259;0.8012947000006534;2452
260;0.8056407000003674;2452
261;0.8097013999995397;2453
262;0.8131310999997368;2453
263;0.8171751000008953;2453
264;0.8217509999994945;2453
265;0.8256842999999208;2453
266;0.8295543999993242;2452
267;0.833685699999478;2452
268;0.8376917999994475;2452
269;0.8417052999993757;2452
270;0.84573249999994;2452
271;0.8494785000002594;2452
272;0.8537064000011014;2452
273;0.8576835000003484;2452
274;0.8616877999993449;2452
275;0.8655557000001863;2451
276;0.869705499999327;2451
277;0.8736308999996254;2451
278;0.8776969000009558;2450
279;0.8812004999999772;2450
280;0.8842635000000882;2450
281;0.8872375999999349;2449
282;0.8901965000004566;2449
283;0.8933269999997719;2449
284;0.8971696999997221;2449
285;0.9002094000006764;2449
286;0.9032218000011198;2449
287;0.906221799999912;2449
288;0.9092116000010719;2448
289;0.9122692000000825;2448
290;0.9152135000003909;2448
291;0.9182099000008748;2448
292;0.9212115000009362;2447
293;0.9242393000004085;2447
294;0.9272125000006781;2448
295;0.930044500000804;2447
296;0.933222300000125;2447
297;0.9362160000000586;2447
298;0.9392077000011341;2446
299;0.9421801999997115;2446
300;0.9448415999995632;2445
301;0.9479221000001417;2445
302;0.9507974999996804;2445
303;0.9538205999997444;2444
304;0.9568116999998892;2444
305;0.9598423000006733;2444
306;0.9620420000010199;2444
307;0.9650373999993462;2444
308;0.9680367000000842;2443
309;0.9710562000000209;2442
310;0.9738892000004853;2442
311;0.9770704000002297;2442
312;0.979910199999722;2441
313;0.982981999999538;2441
314;0.9859969000008277;2441
315;0.988904800000455;2440
316;0.9919793000008212;2440
317;0.9950778000002174;2439
318;0.9980838999999833;2439
319;1.0010707000001275;2438
320;1.0040514000011171;2438
321;1.0070801000001666;2437
322;1.0100844000007783;2437
323;1.012886200000139;2437
324;1.0159834000005503;2437
325;1.0189798999999766;2437
326;1.0219584000005852;2436
327;1.0249893000000156;2436
328;1.0279814999994414;2435
329;1.03087559999949;2435
330;1.034386799999993;2434
331;1.0380722999998397;2433
332;1.0413523000006535;2433
333;1.0452887999999803;2433
334;1.0482446000005439;2432
335;1.0512412000007316;2431
336;1.0542105000004085;2431
337;1.0572651000002224;2431
338;1.0600470999997924;2430
339;1.063909300000887;2430
340;1.0671213999994507;2430
341;1.0701189000010345;2429
342;1.0730285000008735;2429
343;1.0760308999997505;2428
344;1.079003200000443;2428
345;1.0820824000002176;2428
346;1.0852491999994527;2427
347;1.0881850000005215;2427
348;1.0921419000005699;2426
349;1.095108600000458;2425
350;1.0980890000009822;2425
351;1.101022599999851;2424
352;1.1040007000010519;2424
353;1.107087300000785;2424
354;1.1100242000011349;2423
355;1.1128196999998181;2423
356;1.116208600000391;2423
357;1.1191887999993924;2422
358;1.1220993000006274;2421
359;1.1251828000004025;2421
360;1.128172300001097;2420
361;1.131174899999678;2420
362;1.1341740000007121;2419
363;1.1371765000003506;2419
364;1.1401834000007511;2418
365;1.143173399999796;2418
366;1.145844799999395;2417
367;1.14918039999975;2417
368;1.1521824000010383;2416
369;1.1551689999996597;2416
370;1.1581755999995949;2415
371;1.1610648000005312;2415
372;1.1641765999993368;2414
373;1.1671762000005401;2414
374;1.17017130000022;2413
375;1.1731799000008323;2413
376;1.1760348999996495;2412
377;1.1789752000004228;2412
378;1.1821620000009716;2412
379;1.1851507000010315;2411
380;1.1881506999998237;2410
381;1.1911978000007366;2410
382;1.1941633999995247;2410
383;1.1971604000009393;2409
384;1.2001627000008739;2409
385;1.2031545000008919;2408
386;1.206042100000559;2408
387;1.209164800000508;2408
388;1.212172699999428;2407
389;1.2151702999999543;2407
390;1.218164899999465;2407
391;1.2211640999994415;2406
392;1.2239650999999867;2406
393;1.2269314999994094;2405
394;1.228701000000001;2405
395;1.2306898000006186;2405
396;1.2328914000008808;2405
397;1.2348173999998835;2404
398;1.2378103000010015;2404
399;1.2408169000009366;2404
400;1.243824900000618;2404
401;1.246893400000772;2404
402;1.2488319000003685;2403
403;1.252024800000072;2403
404;1.2548115999998117;2403
405;1.257041200000458;2402
406;1.259998600000472;2402
407;1.2627666999997018;2402
408;1.2650308000011137;2402
409;1.268009900000834;2402
410;1.2708485000002838;2401
411;1.2740164000006189;2401
412;1.2770125999995798;2401
413;1.280020300000615;2401
414;1.2829928999999538;2400
415;1.2857882000007521;2400
416;1.289028999999573;2399
417;1.2920216000002256;2399
418;1.2950478000002477;2399
419;1.2980227999996714;2399
420;1.3010338000003685;2399
421;1.3040541999998823;2398
422;1.3070590999996057;2398
423;1.3100044000002526;2398
424;1.312888099999327;2398
425;1.3160571999997046;2398
426;1.3188907000003383;2398
427;1.3220531999995728;2397
428;1.3250361000009434;2397
429;1.3280634000002465;2397
430;1.3310524000007717;2397
431;1.3340711000000738;2397
432;1.3370553000004293;2396
433;1.3400536999997712;2396
434;1.3430557000010594;2396
435;1.3458525000005466;2396
436;1.3489062999997259;2396
437;1.3520530999994662;2396
438;1.3550629000001209;2397
439;1.3580378999995446;2397
440;1.361055800000031;2397
441;1.3640267000009771;2397
442;1.366817699999956;2397
443;1.3701481000007334;2397
444;1.3731635000003735;2397
445;1.3761608000004344;2397
446;1.378880600001139;2398
447;1.382172300000093;2398
448;1.3851842000003671;2398
449;1.3881655000004685;2398
450;1.3911628000005294;2398
451;1.394160899999406;2398
452;1.3980260000007547;2398
453;1.4011613000002399;2399
454;1.4041532999999617;2399
455;1.4071677000010823;2398
456;1.410158799999408;2399
457;1.4129090999995242;2399
458;1.4161593999997422;2399
459;1.4191566000008606;2399
460;1.4220163999998476;2399
461;1.4251672999998846;2399
462;1.427871600000799;2399
463;1.429997999999614;2399
464;1.433166099999653;2399
465;1.436168500000349;2399
466;1.4391623999999865;2399
467;1.4421550999995816;2399
468;1.4451403000002756;2400
469;1.4481539000007615;2400
470;1.4511578000001464;2400
471;1.4541626999998698;2400
472;1.4571565000005648;2401
473;1.4599130999995396;2401
474;1.4628957000004448;2402
475;1.4661634000003687;2402
476;1.469161900000472;2402
477;1.4721597999996447;2403
478;1.4751622000003408;2403
479;1.4781595999993442;2404
480;1.4811554000007163;2404
481;1.484160800000609;2405
482;1.487159000000247;2405
483;1.4898926000005304;2406
484;1.4931646999993973;2406
485;1.495868399999381;2406
486;1.4991568000004918;2407
487;1.5021551999998337;2407
488;1.5050864000004367;2408
489;1.5079318999996758;2408
490;1.5114831999999296;2409
491;1.514239300000554;2409
492;1.5185631999993348;2409
493;1.5220346999994945;2409
494;1.5264554999994289;2410
495;1.5303755000004458;2411
496;1.5344533000006777;2411
497;1.5380427000000054;2412
498;1.5408349999997881;2412
499;1.544414300000426;2412
500;1.5468784000004234;2413
501;1.5503494999993563;2413
502;1.5534303000004002;2414
503;1.5558884000001854;2415
504;1.5593853999998828;2415
505;1.562987900000735;2415
506;1.566077100000257;2416
507;1.5700591999993776;2417
508;1.5730158000005758;2417
509;1.5760238000002573;2418
510;1.5787665999996534;2418
511;1.5821666000010737;2418
512;1.585137100000793;2419
513;1.588138400000389;2419
514;1.590972600000896;2420
515;1.5940298999994411;2420
516;1.5972125999996933;2420
517;1.6001916000004712;2421
518;1.6029777000003378;2421
519;1.6065448999997898;2421
520;1.6104938000007678;2421
521;1.6144640000002255;2422
522;1.6187867000007827;2422
523;1.6235765000001265;2423
524;1.6290742000001046;2423
525;1.633960000001025;2424
526;1.6387709000009636;2425
527;1.642749200000253;2426
528;1.6461383000005299;2427
529;1.6494751000009273;2427
530;1.6536006999995152;2428
531;1.6575455000001966;2429
532;1.6613847000007809;2429
533;1.6645239999998012;2430
534;1.6686047000002873;2430
535;1.672596300000805;2431
536;1.6762366000002658;2432
537;1.6790130000008503;2433
538;1.6825339000006352;2433
539;1.6865983000006963;2434
540;1.6905743000006623;2435
541;1.6945926000007603;2435
542;1.698617699999886;2436
543;1.7025499000010313;2437
544;1.706624100001136;2437
545;1.7105759000005492;2438
546;1.7145397000003868;2439
547;1.7185115000011137;2439
548;1.7225696999994398;2439
549;1.7264931999998225;2440
550;1.7300859000006312;2440
551;1.7345206999998481;2440
552;1.738574700000754;2441
553;1.7424186999996891;2442
554;1.7452721999998175;2442
555;1.7484528000004502;2443
556;1.7525316999999632;2443
557;1.7563212999993993;2444
558;1.7605395000009594;2444
559;1.7644909999999072;2444
560;1.768522500000472;2445
561;1.7714331000006496;2445
562;1.7756062999997084;2445
563;1.7791718000007677;2446
564;1.782447300000058;2446
565;1.7861167999999452;2446
566;1.788961800000834;2446
567;1.7919999999994616;2447
568;1.794803900000261;2447
569;1.7968295000009675;2447
570;1.7987690000009025;2447
571;1.8007271999995282;2447
572;1.8027258000001893;2448
573;1.804743900000176;2448
574;1.8069181000009849;2448
575;1.8099340999997366;2448
576;1.8134767999999895;2449
577;1.8172845000008238;2449
578;1.8219884000009188;2450
579;1.8270109000004595;2450
580;1.8314307000000554;2450
581;1.8354933999999048;2450
582;1.839562900000601;2451
583;1.8435207000002265;2451
584;1.847380000001067;2451
585;1.8503237000004447;2451
586;1.8531788000000233;2451
587;1.8561611999994057;2452
588;1.8591821000009077;2451
589;1.8621729999995296;2451
590;1.8650593000002118;2451
591;1.8681954000003316;2451
592;1.8712023999996745;2451
593;1.874210199999652;2451
594;1.877192300000388;2451
595;1.8799127000002045;2451
596;1.8831890000001295;2451
597;1.886156700000356;2451
598;1.889194999999745;2451
599;1.8921809000003122;2451
600;1.895191800000248;2451
601;1.8981870000006893;2451
602;1.9011630000004516;2451
603;1.90420339999946;2451
604;1.9072004999998171;2451
605;1.9101950999993278;2451
606;1.9130793000003905;2451
607;1.9161691999997856;2451
608;1.9191891999998916;2450
609;1.922026199999891;2450
610;1.9250203000010515;2450
611;1.9279705999997532;2450
612;1.931457099999534;2450
613;1.9354010999995808;2450
614;1.939336800000092;2450
615;1.942967500001032;2450
616;1.9460054000010132;2450
617;1.949288499999966;2449
618;1.9522961000002397;2449
619;1.9551327999997739;2449
620;1.9580738000004203;2449
621;1.9611165000005712;2449
622;1.9641238000003796;2448
623;1.967082200000732;2448
624;1.9699930999995559;2448
625;1.9729819000003772;2448
626;1.975939500000095;2448
627;1.97883610000099;2447
628;1.9811164000002464;2447
629;1.984019999999873;2447
630;1.98700430000099;2447
631;1.9897617000005994;2446
632;1.9917736999996123;2447
633;1.993913700000121;2447
634;1.9969111000009434;2446
635;1.9989700999994966;2446
636;2.0022951000009925;2446
637;2.005285200000799;2445
638;2.008133600000292;2445
639;2.011121600000479;2445
640;2.014127800001006;2445
641;2.0171766000003117;2444
642;2.020187600001009;2444
643;2.0232625999997254;2443
644;2.026206500000626;2443
645;2.0288780000009865;2443
646;2.0322302999993553;2442
647;2.035230800000136;2442
648;2.03778980000061;2442
649;2.0398524000011093;2441
650;2.0418229999995674;2441
651;2.045157200000176;2440
652;2.04817390000062;2440
653;2.0511638000007224;2440
654;2.0538845999999467;2440
655;2.055793999999878;2439
656;2.058163900001091;2439
657;2.0614449000004242;2439
658;2.0654058000000077;2438
659;2.069828300000154;2438
660;2.0735421999997925;2437
661;2.077527800000098;2437
662;2.081374600000345;2436
663;2.0844082000003255;2436
664;2.08869550000054;2435
665;2.092575599999691;2435
666;2.0961083000001963;2434
667;2.0992834999997285;2433
668;2.1021180000007007;2433
669;2.1050682999994024;2433
670;2.1082996999994066;2433
671;2.1113390999998956;2432
672;2.1144786000004387;2432
673;2.1185089999999036;2432
674;2.1225126999997883;2431
675;2.1265884000004007;2430
676;2.130073899999843;2430
677;2.1346155000010185;2429
678;2.1386020999998436;2429
679;2.14260479999939;2428
680;2.1460869000002276;2427
681;2.1494590000002063;2426
682;2.153535200000988;2426
683;2.1575807000008353;2425
684;2.161120500000834;2425
685;2.164545100000396;2424
686;2.168588599999566;2424
687;2.172588800000085;2423
688;2.1761877999997523;2422
689;2.1801202000006015;2421
690;2.184528499999942;2421
691;2.1885019000001193;2420
692;2.192196800000602;2419
693;2.1955164000009972;2419
694;2.1995292000010522;2418
695;2.2035142999993695;2417
696;2.20746920000056;2417
697;2.2115181000008306;2416
698;2.214465700000801;2415
699;2.2185317000003124;2415
700;2.222506100000828;2414
701;2.2265098999996553;2414
702;2.2302675000009913;2413
703;2.2334473000009893;2412
704;2.2362812999999733;2412
705;2.240466999999626;2412
706;2.2445172000007005;2411
707;2.247423400000116;2411
708;2.2515344000003097;2410
709;2.2553814000002603;2410
710;2.259627100000216;2409
711;2.263075900000331;2408
712;2.267600000001039;2408
713;2.271430799999507;2408
714;2.2744342000005418;2407
715;2.2786766000008356;2407
716;2.282533200001126;2406
717;2.2860581999993883;2405
