;time;amplitude
0;0.0029985999990458367;2376
1;0.005902299999434035;2378
2;0.00906839999879594;2379
3;0.011955299998589908;2380
4;0.014965399999709916;2380
5;0.018347799999901326;2381
6;0.020929000000251108;2383
7;0.023965700000189827;2384
8;0.026965600000039558;2385
9;0.030568700000003446;2386
10;0.03452899999865622;2387
11;0.03790069999922707;2388
12;0.04128189999937604;2390
13;0.045550400000138325;2391
14;0.04953229999955511;2392
15;0.0534561999993457;2394
16;0.05605469999863999;2395
17;0.059510699999009375;2396
18;0.06352999999944586;2397
19;0.06751299999996263;2399
20;0.0708625999996002;2400
21;0.07442970000010973;2401
22;0.07845149999957357;2402
23;0.08252579999862064;2404
24;0.08642829999917012;2406
25;0.0891405999991548;2407
26;0.09239399999933084;2409
27;0.09655879999991157;2410
28;0.10045869999885326;2412
29;0.10411169999861158;2413
30;0.10750980000011623;2414
31;0.1115351999997074;2416
32;0.11550349999924947;2417
33;0.11955370000032417;2419
34;0.12207169999965117;2421
35;0.12510300000030838;2421
36;0.1284784999988915;2423
37;0.13253749999967113;2424
38;0.13655309999921883;2425
39;0.1389366000003065;2426
40;0.14190869999947608;2427
41;0.14523910000025353;2428
42;0.14818860000013956;2429
43;0.15112909999879776;2431
44;0.15390229999866278;2432
45;0.157003899999836;2432
46;0.15882269999929122;2433
47;0.16113469999982044;2434
48;0.16390649999993911;2435
49;0.1658888999991177;2435
50;0.1678100999997696;2436
51;0.16987609999887354;2437
52;0.17185069999868574;2438
53;0.17491309999968507;2438
54;0.17847429999892483;2440
55;0.18088449999959266;2441
56;0.1828795999990689;2442
57;0.18489119999867398;2443
58;0.18680630000017118;2444
59;0.1891378000000259;2444
60;0.19203919999927166;2445
61;0.19495610000012675;2446
62;0.19782990000021528;2447
63;0.19980559999930847;2448
64;0.20180599999912374;2449
65;0.20395139999891398;2449
66;0.2068688999988808;2451
67;0.20886119999886432;2452
68;0.21190659999956551;2452
69;0.21495899999899848;2453
70;0.21794559999943885;2454
71;0.22089950000008685;2456
72;0.22396239999943646;2457
73;0.22686129999965488;2458
74;0.22988639999857696;2459
75;0.23354749999998603;2460
76;0.2372256999988167;2461
77;0.23986150000018824;2463
78;0.2433787999998458;2464
79;0.24743359999956738;2465
80;0.2515198999990389;2466
81;0.25527189999957045;2468
82;0.2584229000003688;2469
83;0.2624348999997892;2470
84;0.26590789999863773;2471
85;0.26788010000018403;2472
86;0.26974039999913657;2473
87;0.2718632999985857;2474
88;0.2737481000003754;2474
89;0.2758077999988018;2475
90;0.2789632999993046;2476
91;0.2819733999986056;2477
92;0.2848876999996719;2478
93;0.28795089999948686;2479
94;0.2912292000000889;2480
95;0.2938849999991362;2481
96;0.29581320000033884;2481
97;0.2978124999990541;2482
98;0.29975999999987835;2483
99;0.30177249999906053;2484
100;0.30374250000022585;2484
101;0.3058760000003531;2485
102;0.3077047999995557;2485
103;0.30970849999903294;2486
104;0.3118607999986125;2486
105;0.3149195999994845;2486
106;0.31673140000020794;2487
107;0.3186746999999741;2488
108;0.32094299999880604;2489
109;0.32381619999978284;2489
110;0.3257517000001826;2490
111;0.3277682999996614;2490
112;0.32976269999926444;2491
113;0.3317553999986558;2491
114;0.3337248999996518;2492
115;0.33578359999955865;2493
116;0.3377626000001328;2493
117;0.3399888000003557;2494
118;0.3427680999993754;2494
119;0.34484820000034233;2495
120;0.3468323999986751;2495
121;0.3488276999996742;2496
122;0.3508289000001241;2497
123;0.35275759999967704;2497
124;0.35510249999970256;2498
125;0.3578144999992219;2498
126;0.35978809999869554;2499
127;0.361709199998586;2500
128;0.3638015999986237;2501
129;0.36571619999995164;2501
130;0.36778059999960533;2502
131;0.369668699999238;2502
132;0.37283360000037646;2503
133;0.37487809999947785;2503
134;0.37687759999971604;2504
135;0.3788370999991457;2504
136;0.3808432999994693;2505
137;0.3827559999990626;2505
138;0.38485079999918526;2505
139;0.38666790000024776;2506
140;0.3889065999992454;2506
141;0.3908559999999852;2506
142;0.3938058000003366;2506
143;0.3957966999987548;2507
144;0.3977091999986442;2508
145;0.3997922999988077;2508
146;0.4017152999986138;2509
147;0.40379639999991923;2509
148;0.405717800000275;2509
149;0.4078284999995958;2509
150;0.4099508999988757;2509
151;0.41287799999918207;2510
152;0.41483399999924586;2510
153;0.41695419999996375;2510
154;0.41998160000002827;2511
155;0.42290549999961513;2511
156;0.4248735000001034;2511
157;0.4278856999990239;2511
158;0.4298051999994641;2512
159;0.43185019999873475;2512
160;0.434867399999348;2512
161;0.4367292999995698;2512
162;0.43892049999885785;2512
163;0.44084060000022873;2512
164;0.4428334000003815;2513
165;0.44479519999913464;2513
166;0.4466959000001225;2513
167;0.4486884999987524;2513
168;0.45069340000009106;2513
169;0.4528530999996292;2513
170;0.45476029999917955;2514
171;0.4567552999997133;2513
172;0.45869329999914044;2514
173;0.46079739999913727;2514
174;0.46279559999857156;2514
175;0.4648288999997021;2514
176;0.4669979999998759;2514
177;0.4703964000000269;2514
178;0.4729611000002478;2513
179;0.47588309999991907;2513
180;0.479494799999884;2514
181;0.48349969999981113;2514
182;0.4871560999999929;2514
183;0.49006740000004356;2514
184;0.49325599999974656;2514
185;0.49596810000002733;2514
186;0.49915689999943424;2514
187;0.5021551999998337;2514
188;0.504935299999488;2514
189;0.5079366999998456;2514
190;0.5100474999999278;2514
191;0.5130830999987666;2514
192;0.516040399999838;2514
193;0.5189836999998079;2514
194;0.5222575999996479;2514
195;0.5252301999989868;2514
196;0.5282336999989639;2514
197;0.5312228000002506;2514
198;0.53421359999993;2514
199;0.53691230000004;2514
200;0.5402204999991227;2514
201;0.5432377999986784;2514
202;0.5461175000000367;2513
203;0.5491204999998445;2513
204;0.5518936999997095;2513
205;0.5538851999990584;2512
206;0.5572482999996282;2512
207;0.5602366000002803;2511
208;0.563165100000333;2511
209;0.5662740999996458;2511
210;0.568995099998574;2511
211;0.5719826999993529;2510
212;0.5752433999987261;2510
213;0.5782564000001003;2509
214;0.5812451000001602;2509
215;0.584297699999297;2508
216;0.5870005999986461;2508
217;0.5902277999994112;2507
218;0.5935288000000583;2507
219;0.5976259999988542;2506
220;0.6011942999994062;2505
221;0.6040338999991945;2504
222;0.6073206999990362;2504
223;0.6101414999993722;2504
224;0.6135419999991427;2503
225;0.6174551000003703;2503
226;0.6209932000001572;2502
227;0.6240551999999298;2501
228;0.6270420999990165;2501
229;0.6305311999985861;2500
230;0.6345987999993667;2500
231;0.6381801999996242;2498
232;0.6426403999994363;2498
233;0.646752299999207;2497
234;0.6507224999986647;2496
235;0.6541368999987753;2495
236;0.658667499999865;2495
237;0.6627382999995461;2494
238;0.6666121999987809;2492
239;0.6701100999998744;2491
240;0.6730186999993748;2490
241;0.6760145999996894;2489
242;0.6791684999989229;2489
243;0.6819273000000976;2488
244;0.6849748999993608;2487
245;0.6879532000002655;2486
246;0.6908923999999388;2485
247;0.6945520999997825;2484
248;0.6980860000003304;2483
249;0.701462499999252;2482
250;0.705091399999219;2481
251;0.7084407999991527;2480
252;0.7125254999991739;2479
253;0.7165079999995214;2478
254;0.7202559999986988;2477
255;0.7229471999999078;2476
256;0.726379800000359;2475
257;0.7305372999999236;2475
258;0.7344389999998384;2473
259;0.7378532000002451;2472
260;0.73986960000002;2471
261;0.742958799999542;2470
262;0.7465145999995002;2469
263;0.7505265999989206;2468
264;0.7540035999991233;2466
265;0.7570568999999523;2465
266;0.7603937999992922;2463
267;0.763031399999818;2463
268;0.766397399998823;2462
269;0.7702146999999968;2460
270;0.7733085999989271;2459
271;0.7763063999991573;2458
272;0.7792805999997654;2457
273;0.7822825000002922;2456
274;0.7850746999993135;2454
275;0.7882248999994772;2453
276;0.791124100000161;2452
277;0.7941154999989521;2451
278;0.7970766999987973;2450
279;0.8002309000003152;2448
280;0.8031073999991349;2447
281;0.8072738999999274;2446
282;0.8102407999995194;2445
283;0.8132136000003811;2443
284;0.8162113999987923;2442
285;0.8192055999988952;2441
286;0.8221840999995038;2440
287;0.824959100000342;2439
288;0.8278842999989138;2438
289;0.8298971999993228;2437
290;0.8317981000000145;2437
291;0.8338155999990704;2436
292;0.8358229999994364;2436
293;0.8389798999996856;2435
294;0.8419589999994059;2434
295;0.8454517999998643;2433
296;0.8499878999991779;2432
297;0.8545091999985743;2430
298;0.8587723000000551;2428
299;0.864027100000385;2426
300;0.8691242999993847;2425
301;0.8738343999993958;2422
302;0.8775482999990345;2421
303;0.8820626999986416;2420
304;0.8862766000002011;2418
305;0.8893446999991284;2417
306;0.8938736000000063;2415
307;0.8987879999986035;2413
308;0.9028404000000592;2412
309;0.9065480999997817;2410
310;0.9106847000002745;2409
311;0.9146899999996094;2407
312;0.9181755999998131;2406
313;0.9222812999996677;2404
314;0.9251239999994141;2403
315;0.9297004000000015;2402
316;0.9336998999988282;2401
317;0.9372485999992932;2399
318;0.9402197999988857;2398
319;0.9431791999995767;2396
320;0.9461254999987432;2395
321;0.9490662999996857;2394
322;0.9521764000000985;2393
323;0.9550540000000183;2391
324;0.9580384999990201;2390
325;0.9609908000002179;2389
326;0.9639881999992213;2388
327;0.9669567000000825;2387
328;0.96995699999934;2386
329;0.9729079999997339;2385
330;0.9748909999998432;2384
331;0.9768891999992775;2383
332;0.9788226000000577;2382
333;0.9808735999995406;2381
334;0.9828756999995676;2380
335;0.9849549999998999;2380
336;0.9867514999987179;2379
337;0.988770799998747;2378
338;0.990967499999897;2377
339;0.9939143999999942;2377
340;0.9974306999993132;2375
341;1.0003022000000783;2374
342;1.003172299999278;2373
343;1.0060601999994105;2372
344;1.0091230999987602;2371
345;1.0123203000002832;2370
346;1.0163536999989446;2370
347;1.0203345999998419;2369
348;1.0243754999992234;2367
349;1.0272496999987197;2366
350;1.030272199999672;2366
351;1.0331281999988278;2365
352;1.0361541000002035;2364
353;1.040162399998735;2363
354;1.0432304999994813;2362
355;1.0462267999992036;2361
356;1.0491729999994277;2360
357;1.0520662999988417;2359
358;1.0552625000000262;2358
359;1.058248100000128;2357
360;1.0610618999999133;2356
361;1.0640561999989586;2356
362;1.0666693000002851;2354
363;1.0688083999993978;2354
364;1.0708398999995552;2353
365;1.0728084000002127;2353
366;1.0747369999990042;2352
367;1.0768380999998044;2352
368;1.0798653999991075;2351
369;1.08189449999918;2349
370;1.0839118999992934;2349
371;1.0858060999998997;2348
372;1.0878741999986232;2348
373;1.090850299999147;2347
374;1.0930127999999968;2346
375;1.0959520999986125;2346
376;1.0987998000000516;2345
377;1.100896300000386;2344
378;1.102861600000324;2344
379;1.1050689999992755;2344
380;1.1079159999990225;2343
381;1.1108390999997937;2342
382;1.1129072000003362;2341
383;1.1148917999998957;2341
384;1.1168715999992855;2341
385;1.1203745000002527;2340
386;1.1229516999992484;2340
387;1.1258758999993006;2339
388;1.1294481999993877;2338
389;1.1335151000002952;2337
390;1.1369987999987643;2336
391;1.140027100000225;2336
392;1.143249900000228;2336
393;1.147063000000344;2335
394;1.1504167999992205;2335
395;1.1540370999991865;2335
396;1.157073299998956;2334
397;1.1600576999990153;2334
398;1.163065099999585;2333
399;1.1660237999985839;2333
400;1.1688607999985834;2332
401;1.1709054999992077;2332
402;1.1739123999996082;2331
403;1.1772451999986515;2331
404;1.179907199999434;2330
405;1.1818774000003032;2330
406;1.1838780999987648;2330
407;1.1858945000003587;2330
408;1.1878770999992412;2329
409;1.190981499999907;2329
410;1.193919499999538;2329
411;1.1958600999987539;2329
412;1.1978237000002991;2329
413;1.1999067999986437;2329
414;1.201754499999879;2329
415;1.2039038999992044;2328
416;1.2068748000001506;2328
417;1.2087995000001683;2328
418;1.2108064999993076;2328
419;1.2127848000000085;2328
420;1.2148880999993708;2328
421;1.217923599999267;2328
422;1.2198993000001792;2327
423;1.223250499999267;2327
424;1.2261968000002526;2327
425;1.2292476999991777;2327
426;1.2322312999986025;2327
427;1.235258699998667;2327
428;1.2379404999992403;2327
429;1.2412626999994245;2327
430;1.244047000000137;2327
431;1.2469949999995151;2327
432;1.249891800000114;2327
433;1.2519089999987045;2327
434;1.2538043999993533;2327
435;1.25705089999974;2327
436;1.2600475999988703;2327
437;1.2630468999996083;2327
438;1.2662115000002814;2327
439;1.2691653999991104;2327
440;1.272077800000261;2328
441;1.2752970999990794;2328
442;1.278277800000069;2328
443;1.2812763999991148;2328
444;1.2841484000000492;2328
445;1.2869893999995838;2329
446;1.2901433999995788;2329
447;1.293082799998956;2329
448;1.296086499998637;2330
449;1.2990759999993315;2330
450;1.3019722999997612;2330
451;1.3051336999997147;2331
452;1.3081364999998186;2331
453;1.3111289999997098;2331
454;1.3144138999996358;2332
455;1.3184854999999516;2332
456;1.322011799999018;2332
457;1.3253413999991608;2332
458;1.3283020999988366;2332
459;1.331303899998602;2332
460;1.3343078999987483;2333
461;1.3370054999995773;2333
462;1.3401193999998213;2333
463;1.3431234999989101;2334
464;1.3461096999999427;2334
465;1.349111699999412;2334
466;1.3522529000001668;2335
467;1.3551613999989058;2335
468;1.3581486999992194;2336
469;1.3611301999990246;2336
470;1.364138400000229;2337
471;1.367244799999753;2337
472;1.3697205999997095;2338
473;1.3724597000000358;2338
474;1.376521899999716;2339
475;1.3805167999998957;2340
476;1.3839486999986548;2340
477;1.3869204000002355;2341
478;1.3901458000000275;2342
479;1.3933899999992718;2343
480;1.3970449999997072;2344
481;1.400448200000028;2344
482;1.4040742999986833;2345
483;1.4074253999988287;2346
484;1.4103944999988016;2347
485;1.413384399998904;2347
486;1.4159683999987465;2348
487;1.419392499999958;2349
488;1.4219640999999683;2349
489;1.423816700000316;2350
490;1.4267805999988923;2350
491;1.4288309999992634;2351
492;1.4308984999988752;2351
493;1.4328354999997828;2352
494;1.4349079000003258;2352
495;1.4368763000002218;2353
496;1.4388175000003685;2353
497;1.4409784999988915;2354
498;1.4428787999986525;2354
499;1.44487990000016;2355
500;1.446878900000229;2355
501;1.4489866999992955;2356
502;1.4520147000002908;2357
503;1.4553023999997095;2357
504;1.4593119000001025;2358
505;1.4622629999994388;2359
506;1.4652719999994588;2360
507;1.468112700000347;2361
508;1.470975799998996;2362
509;1.4740824999989854;2363
510;1.4770336999990832;2364
511;1.4800543000001198;2365
512;1.4833471000001737;2366
513;1.485908799999379;2367
514;1.4884480000000622;2367
515;1.492516099999193;2368
516;1.496498700000302;2370
517;1.5003125999992335;2371
518;1.5034614999985934;2372
519;1.5074929999991582;2373
520;1.5115152999987913;2375
521;1.515519200000199;2376
522;1.519333899999765;2378
523;1.5224927999988722;2379
524;1.5265221999998175;2379
525;1.5305006999988109;2381
526;1.5345400999995036;2382
527;1.536956399999326;2383
528;1.5404462999995303;2385
529;1.54404760000034;2386
530;1.5470470000000205;2387
531;1.5500468999998702;2388
532;1.552993499999502;2389
533;1.556531799998993;2390
534;1.560513999998875;2392
535;1.5643915999989986;2394
536;1.568487799999275;2395
537;1.5725167999989935;2396
538;1.576513599999089;2398
539;1.5805201999992278;2399
540;1.5844541999995272;2401
541;1.5884771999990335;2403
542;1.592519199999515;2404
543;1.5965157999999064;2405
544;1.6002840000001015;2407
545;1.6034592999985762;2409
546;1.607514399998763;2410
547;1.6115214000001288;2412
548;1.6154901999998401;2413
549;1.6190019999994547;2414
550;1.6218549999994138;2415
551;1.6238419999990583;2417
552;1.6258566999986215;2417
553;1.6279102999997122;2418
554;1.6309118999997736;2419
555;1.6328940999992483;2420
556;1.6349133000003349;2421
557;1.6368438999998034;2422
558;1.639933000000383;2422
559;1.642939600000318;2423
560;1.6448829999990267;2424
561;1.6469139000000723;2425
562;1.6488391999992018;2426
563;1.6508670999992319;2427
564;1.6528558999998495;2428
565;1.6550693999997748;2428
566;1.6579240999999456;2429
567;1.6599073999987013;2430
568;1.6629137999989325;2431
569;1.6659882999992988;2432
570;1.6689394999993965;2433
571;1.6709267999995063;2434
572;1.673929999999018;2435
573;1.675914899999043;2437
574;1.6778782999990653;2438
575;1.679868199998964;2439
576;1.6819238999996742;2440
577;1.6849665999998251;2440
578;1.6883201000000554;2441
579;1.6912212999995972;2442
580;1.6942268999991938;2444
581;1.6971209999992425;2445
582;1.7001552999990963;2446
583;1.7031912000002194;2447
584;1.7060144999995828;2448
585;1.7090164000001096;2449
586;1.7120643999987806;2450
587;1.7150272999988374;2452
588;1.7177904000000126;2453
589;1.7199693000002299;2455
590;1.7231874999997672;2456
591;1.7261949999992794;2457
592;1.729189800000313;2458
593;1.7321891999999934;2459
594;1.735195899998871;2460
595;1.737961599999835;2461
596;1.7411910999999236;2463
597;1.7441927999989275;2464
598;1.7471982999995816;2465
599;1.7502148000003217;2466
600;1.752912699999797;2466
601;1.7550075999988621;2466
602;1.7578995000003488;2467
603;1.7611899999992602;2469
604;1.764183299999786;2470
605;1.7671935999987909;2471
606;1.7698050999988482;2471
607;1.7720567999986088;2472
608;1.77517909999915;2473
609;1.7781718999995064;2474
610;1.7811695999989752;2475
611;1.784259899999597;2476
612;1.7868932000001223;2476
613;1.7901067000002513;2477
614;1.7931145000002289;2478
615;1.7961027000001195;2479
616;1.799215400000321;2479
617;1.8023389999998471;2480
618;1.8055767999994714;2481
619;1.8094970999991347;2482
620;1.8134977999998227;2483
621;1.817489699998987;2484
622;1.8214485999997123;2485
623;1.8255104999989271;2486
624;1.829513999999108;2488
625;1.8335121999989497;2489
626;1.8369609999990644;2491
627;1.8405676999991556;2492
628;1.8441806999999244;2493
629;1.847134300000107;2494
630;1.850014800000281;2495
631;1.85302159999992;2496
632;1.8560954999993555;2497
633;1.8590542000001733;2498
634;1.8620605999985855;2499
635;1.8651019999997516;2500
636;1.868101599999136;2501
637;1.870979699999225;2501
638;1.8744499999993423;2502
639;1.8785248000003776;2503
640;1.8825230999991618;2504
641;1.8862546999989718;2505
642;1.8889315999986138;2505
643;1.890949599999658;2506
644;1.8928832999990846;2507
645;1.8948277999988932;2507
646;1.8968945999986317;2507
647;1.8989433999995526;2508
648;1.9317754000003333;2509
649;1.9349474999999074;2511
650;1.9368366999988211;2512
651;1.9389518999996653;2512
652;1.9420027999985905;2513
653;1.9453427999997075;2513
654;1.9497922999998991;2513
655;1.951888699999472;2513
656;1.9539592000000994;2514
657;1.9557605999998486;2514
658;1.9580120999999053;2514
659;1.960843400000158;2514
660;1.9628543999988324;2515
661;1.9648987999989913;2515
662;1.9679015999990952;2515
663;1.9697926999997435;2515
664;1.9720438999993348;2515
665;1.9749274999994668;2515
666;1.9768418999992718;2515
667;1.9789252999999007;2515
668;1.9809260000001814;2515
669;1.982812299998841;2515
670;1.9848767000003136;2515
671;1.9869022000002587;2515
672;1.9898846999985835;2515
673;1.9918417999997473;2515
674;1.9938265000000683;2515
675;1.9958303999992495;2515
676;1.9978291999996145;2515
677;2.0008373000000574;2515
678;2.0028891999991174;2514
679;2.0058888000003208;2515
680;2.0079155000003084;2515
681;2.0102393999986816;2515
682;2.0131572999998752;2515
683;2.0161231999991287;2515
684;2.0189549999995506;2514
685;2.0208812999990187;2514
686;2.0228883999989193;2514
687;2.0248842000000877;2514
688;2.0270091999991564;2514
689;2.0299099999992904;2514
690;2.0318962000001193;2514
691;2.0338940000001458;2514
692;2.036378999999215;2514
693;2.0392573999997694;2513
694;2.0430624000000535;2513
695;2.04626989999997;2513
696;2.049293199999738;2512
697;2.0522493999997096;2512
698;2.0550829999992857;2512
699;2.058043600000019;2512
700;2.061010499999611;2511
701;2.064024999999674;2511
702;2.0670584999988932;2511
703;2.069761599999765;2511
704;2.071834399999716;2511
705;2.073853699999745;2511
706;2.0758482000001095;2511
707;2.077762499999153;2511
708;2.0797348999985843;2510
709;2.081713800000216;2510
710;2.0837252999990596;2510
711;2.0857314999993832;2510
712;2.0877236999986053;2509
713;2.0897053999997297;2509
714;2.0919553999992786;2509
715;2.094929400000183;2508
716;2.097932499998933;2508
