;time;amplitude
0;0.00357110000004468;2518
1;0.0075477000000319094;2518
2;0.010692599999856611;2518
3;0.014528100000461563;2518
4;0.017456500000662345;2518
5;0.020354600000246137;2518
6;0.02352060000066558;2518
7;0.02647750000051019;2518
8;0.029371200000241515;2518
9;0.03259600000001228;2518
10;0.03560920000018086;2518
11;0.038645000000542495;2518
12;0.04156539999985398;2518
13;0.04449449999992794;2518
14;0.04732990000047721;2518
15;0.050527299999885145;2518
16;0.05349190000015369;2518
17;0.056587000000035914;2518
18;0.05962619999991148;2518
19;0.06262160000005679;2517
20;0.06536980000055337;2517
21;0.06836370000019087;2517
22;0.07154690000061237;2517
23;0.07453320000058739;2517
24;0.07751780000035069;2517
25;0.08053070000005391;2517
26;0.08341569999993226;2517
27;0.08635210000011284;2517
28;0.08960040000056324;2516
29;0.09252509999987524;2517
30;0.09555430000000342;2517
31;0.09855299999981071;2517
32;0.1028124000004027;2517
33;0.10693730000002688;2517
34;0.11058270000012271;2517
35;0.11449520000041957;2516
36;0.1173757000005935;2517
37;0.12057129999993776;2516
38;0.12347240000053716;2517
39;0.1266230999999607;2517
40;0.13061220000054163;2517
41;0.13365520000024844;2517
42;0.13627790000009554;2517
43;0.1396178000004511;2517
44;0.14264490000005026;2517
45;0.14570790000016132;2517
46;0.14868740000019898;2517
47;0.15158770000016375;2517
48;0.15454420000060054;2517
49;0.15753120000044873;2517
50;0.1601237000004403;2517
51;0.16214099999979226;2517
52;0.1644640000004074;2517
53;0.16742830000021058;2517
54;0.17050780000045052;2517
55;0.17351109999981418;2517
56;0.17638630000055855;2516
57;0.17918270000063785;2516
58;0.18223800000032497;2516
59;0.1852374999998574;2516
60;0.18722040000011475;2516
61;0.19011610000052315;2516
62;0.19219669999984035;2516
63;0.1942261000003782;2516
64;0.1973591000005399;2516
65;0.2003420000000915;2515
66;0.2032366000003094;2515
67;0.20618439999998373;2515
68;0.20833380000021862;2515
69;0.21140590000049997;2516
70;0.2141501000005519;2516
71;0.21727060000011988;2516
72;0.22052760000042326;2517
73;0.2232772000006662;2517
74;0.22626870000021881;2517
75;0.22941110000010667;2517
76;0.2323911000003136;2517
77;0.23541990000012447;2517
78;0.23869680000007065;2517
79;0.24270789999991393;2517
80;0.24561760000051436;2517
81;0.24874150000050577;2517
82;0.2523177000002761;2517
83;0.2552731000005224;2517
84;0.25875619999987975;2517
85;0.2627903000002334;2516
86;0.2667854000001171;2516
87;0.2694005000003017;2517
88;0.27271079999991343;2518
89;0.2756992000004175;2517
90;0.2795525000001362;2517
91;0.2825444999998581;2517
92;0.28628160000062053;2517
93;0.28935379999984434;2517
94;0.2923404000002847;2516
95;0.29520050000064657;2516
96;0.29723699999976816;2516
97;0.2992699000005814;2516
98;0.30280170000060025;2517
99;0.3067277999998623;2517
100;0.31068320000031235;2516
101;0.3136267999998381;2516
102;0.316771300000255;2516
103;0.32063150000067253;2516
104;0.32482440000057977;2517
105;0.3287184000000707;2517
106;0.3327854999997726;2517
107;0.3356318000005558;2517
108;0.33833599999979924;2517
109;0.3413246000000072;2517
110;0.3443670000006023;2517
111;0.3475201000001107;2516
112;0.35038820000045234;2516
113;0.35323520000019926;2517
114;0.35647490000064863;2516
115;0.3593761000001905;2516
116;0.36225130000002537;2516
117;0.3642702000006466;2516
118;0.36726830000043265;2516
119;0.3691109999999753;2516
120;0.37117140000009385;2516
121;0.3732807000005778;2515
122;0.3754269999999451;2515
123;0.3782927000002019;2515
124;0.38128750000032596;2515
125;0.3843138000002;2515
126;0.3873514000006253;2516
127;0.3901965000004566;2516
128;0.39383660000021337;2516
129;0.39774750000015047;2516
130;0.40078450000055454;2517
131;0.404347400000006;2516
132;0.4077738000005411;2517
133;0.41064880000067205;2517
134;0.4135669000006601;2517
135;0.41677700000036566;2517
136;0.4191865000002508;2517
137;0.42106560000047466;2518
138;0.4232155999998213;2518
139;0.42629649999980757;2518
140;0.429380300000048;2518
141;0.43235290000029636;2518
142;0.4353631000003588;2519
143;0.43732590000036;2519
144;0.44036810000034166;2519
145;0.44319720000021334;2519
146;0.4463971000004676;2519
147;0.44942790000004607;2519
148;0.4524576000003435;2519
149;0.4552090000006501;2519
150;0.457481800000096;2519
151;0.4602321000002121;2518
152;0.4631217000005563;2518
153;0.4651069000001371;2517
154;0.46723819999988336;2517
155;0.47011120000024675;2517
156;0.4721128999999564;2517
157;0.47523009999986243;2517
158;0.47831200000018725;2517
159;0.4813697999998112;2517
160;0.48420200000055047;2518
161;0.48726040000019566;2518
162;0.489257400000497;2518
163;0.49125940000067203;2518
164;0.4932765000003201;2518
165;0.4950908000000709;2517
166;0.4971119000001636;2518
167;0.4990606999999727;2518
168;0.501075199999832;2518
169;0.503030700000636;2517
170;0.5064140000004045;2517
171;0.5093348000000333;2518
172;0.5127406999999948;2518
173;0.5156275999997888;2518
174;0.518235900000036;2518
175;0.5200893999999607;2517
176;0.5222039000000223;2518
177;0.5253828000004432;2518
178;0.5282680999998774;2518
179;0.5316645000002609;2517
180;0.5356551000004401;2518
181;0.5386576000000787;2518
182;0.5412277000004906;2518
183;0.544546199999786;2518
184;0.547599600000467;2518
185;0.5506114999998317;2518
186;0.5532558000004428;2518
187;0.5562375999998039;2518
188;0.5583792000006724;2517
189;0.5612848000000668;2518
190;0.5641726000003473;2517
191;0.5674373000001651;2517
192;0.570230199999969;2517
193;0.572501600000578;2517
194;0.575422100000651;2517
195;0.578556600000411;2517
196;0.5814761999999973;2517
197;0.5846873999998934;2518
198;0.5882259999998496;2518
199;0.5914105000001655;2518
200;0.5942295000004378;2518
201;0.5973853000004965;2518
202;0.600353300000279;2518
203;0.603208800000175;2518
204;0.605203199999778;2518
205;0.6083502999999837;2518
206;0.6114853999997649;2517
207;0.6143449000001056;2517
208;0.6171937999997681;2517
209;0.6202460000004066;2517
210;0.6232490000002144;2517
211;0.625497500000165;2517
212;0.6281374000000142;2517
213;0.6301389000000199;2517
214;0.6332204000000274;2517
215;0.636148200000207;2517
216;0.6392456000003222;2517
217;0.6426860000001398;2517
218;0.6456305000001521;2517
219;0.649671600000147;2517
220;0.6527319000006173;2517
221;0.6566123000002335;2517
222;0.6594986999998582;2517
223;0.6622519000002285;2517
224;0.665373499999987;2517
225;0.6683423000004041;2517
226;0.6701327999999194;2517
227;0.6734322000002066;2517
228;0.676191800000197;2517
229;0.6781799000000319;2517
230;0.6811832000003051;2517
231;0.6842081000004328;2517
232;0.6861163000003216;2518
233;0.6881873000002088;2518
234;0.6913091000005807;2518
235;0.6945284000003085;2518
236;0.6974282999999559;2518
237;0.7002234000001408;2518
238;0.703230000000076;2518
239;0.7052364999999554;2518
240;0.7084189000006518;2518
241;0.7112342000000353;2518
242;0.7134073000006538;2518
243;0.7165635000001203;2518
244;0.7190239000001384;2518
245;0.7214214000005086;2518
246;0.7245401000000129;2517
247;0.7272721999997884;2517
248;0.7302004000002853;2517
249;0.7332302000004347;2517
250;0.736246299999948;2517
251;0.7395126999999775;2517
252;0.7423415000002933;2517
253;0.7454007000005731;2517
254;0.7485284000003958;2517
255;0.7511245000005147;2517
256;0.7545445000005202;2517
257;0.757306299999982;2517
258;0.7605254000000059;2516
259;0.7635491000000911;2517
260;0.766361699999834;2516
261;0.7691684999999779;2517
262;0.7722364999999627;2517
263;0.7753616999998485;2517
264;0.7785260999999082;2516
265;0.7814235000005283;2517
266;0.7845499000004565;2517
267;0.787198900000476;2517
268;0.7904443000006722;2518
269;0.7935228000005736;2518
270;0.796399200000451;2518
271;0.7992143999999826;2518
272;0.8025108000001637;2518
273;0.8054192999998122;2518
274;0.8085210999997798;2518
275;0.811396799999784;2519
276;0.8142896999997902;2519
277;0.8174619999999777;2518
278;0.820422900000267;2518
279;0.8235457999999198;2519
280;0.8264220999999452;2519
281;0.8292191999998977;2518
282;0.8323391000003539;2518
283;0.83542800000032;2518
284;0.8385287999999491;2518
285;0.8414339999999356;2518
286;0.8442190000005212;2518
287;0.8474440999998478;2518
288;0.8504367000005004;2518
289;0.8532329999998183;2518
290;0.8552777000004426;2518
291;0.8584367000003112;2518
292;0.8613467000004675;2518
293;0.8644058999998379;2518
294;0.8674959999998464;2517
295;0.8702922000002218;2517
296;0.8732569000003423;2517
297;0.8762490999997681;2517
298;0.8794089000002714;2517
299;0.8822343000001638;2517
300;0.8854258999999729;2517
301;0.8883229000002757;2517
302;0.8915235000004031;2517
303;0.8946574999999939;2516
304;0.8971289999999499;2516
305;0.9004632000005586;2516
306;0.9031043000004502;2517
307;0.9064204000005702;2516
308;0.9095238999998401;2517
309;0.913470899999993;2517
310;0.9166064999999435;2516
311;0.920231000000058;2516
312;0.9224095999998099;2516
313;0.9257273000002897;2516
314;0.9301387000004979;2516
315;0.9337751000002754;2516
316;0.937786700000288;2516
317;0.942423399999825;2517
318;0.9472949000000881;2516
319;0.9520902000003844;2516
320;0.9552822000005108;2516
321;0.9584983000004286;2516
322;0.9626095000003261;2516
323;0.9667325000000346;2516
324;0.9702525000002424;2516
325;0.9725769000006039;2516
326;0.9765793000005942;2517
327;0.9808312000004662;2517
328;0.9846238999998604;2517
329;0.9873023999998622;2517
330;0.9905537000004188;2517
331;0.9936907999999676;2517
332;0.9967195999997784;2517
333;1.0007151999998314;2517
334;1.003236200000174;2517
335;1.0067297000005055;2516
336;1.0107136000005994;2516
337;1.014760600000045;2515
338;1.0172739999998157;2515
339;1.0203059000004941;2515
340;1.023269000000255;2515
341;1.0266376999998101;2515
342;1.0307203000002119;2514
343;1.0335769000002983;2514
344;1.0362617999999202;2514
345;1.0395766000001458;2514
346;1.0427872000000207;2515
347;1.0454532000003383;2515
348;1.048430300000291;2515
349;1.0513859000002412;2515
350;1.05485839999983;2514
351;1.0577917000000525;2515
352;1.0616838000005373;2515
353;1.0646748999997726;2514
354;1.067637900000591;2514
355;1.0702257000002646;2514
356;1.0735707000003458;2514
357;1.07664879999993;2514
358;1.0795905000004495;2514
359;1.0824228000001312;2515
360;1.085297000000537;2516
361;1.088442600000235;2516
362;1.0914075999999113;2516
363;1.0944890000000669;2516
364;1.097384300000158;2516
365;1.1003974000004746;2516
366;1.1032917000002271;2516
367;1.1065566000006584;2515
368;1.109507900000608;2516
369;1.1121962000006533;2516
370;1.1153997000001254;2515
371;1.118517800000518;2514
372;1.1213729999999487;2514
373;1.124438800000462;2514
374;1.1273787999998603;2514
375;1.1303819000004296;2514
376;1.1335288000000219;2513
377;1.1361608000006527;2514
378;1.1383905000002414;2514
379;1.1404522000002544;2514
380;1.1433216000004904;2514
381;1.1465046000002985;2514
382;1.149506300000212;2514
383;1.152233800000431;2514
384;1.1541618999999628;2514
385;1.156514000000243;2513
386;1.1593677999999272;2513
387;1.1623507000003883;2513
388;1.1653980999999476;2513
389;1.1682840000003125;2513
390;1.1701739000000089;2513
391;1.1732637000004615;2513
392;1.1761934000005567;2513
393;1.1791893999998138;2513
394;1.1822018000002572;2513
395;1.185102299999926;2513
396;1.1880910999998378;2513
397;1.1903560999999172;2512
398;1.1933886000006169;2512
399;1.196344400000271;2512
400;1.199415900000531;2512
401;1.2023144000004322;2512
402;1.2054188000001886;2512
403;1.2082060000002457;2511
404;1.211264100000335;2511
405;1.214255900000353;2511
406;1.2162131000004592;2510
407;1.2181276000001162;2510
408;1.2201592999999775;2510
409;1.222190700000283;2510
410;1.2252674000001207;2510
411;1.2285846000004312;2510
412;1.2314975999997841;2510
413;1.234502700000121;2510
414;1.2374445000004926;2510
415;1.2402109000004202;2510
416;1.2435196000005817;2510
417;1.2465405000002647;2510
418;1.2493838999998843;2509
419;1.252653200000168;2509
420;1.2556801000000632;2510
421;1.2596478000004936;2510
422;1.2627926000004663;2510
423;1.2667944000004354;2509
424;1.2703513000005842;2509
425;1.273514100000284;2509
426;1.276790300000357;2508
427;1.2807738000001336;2509
428;1.2848352999999406;2509
429;1.2875736000005418;2509
430;1.291385600000467;2509
431;1.2947631000006368;2509
432;1.2977031000000352;2508
433;1.3002155000003768;2507
434;1.3034899000003861;2507
435;1.3078174000002036;2507
436;1.311819900000046;2507
437;1.3158167000001413;2507
438;1.3193430000001172;2506
439;1.3222261999999319;2506
440;1.3256595000002562;2506
441;1.3286121999999523;2505
442;1.3314820000005056;2505
443;1.3344881000002715;2505
444;1.3374885000002905;2505
445;1.3404700000000958;2505
446;1.343465699999797;2505
447;1.3464675000004718;2505
448;1.3492882000000463;2505
449;1.3523792000005415;2504
450;1.355472400000508;2504
451;1.3584151000004567;2504
452;1.3614705999998478;2504
453;1.364630400000351;2504
454;1.3675047000006089;2504
455;1.3705008000006274;2504
456;1.3734705000006215;2503
457;1.376422199999979;2503
458;1.3794690000004266;2503
459;1.3826544000003196;2503
460;1.3855768000003081;2502
461;1.3883802999998807;2502
462;1.3914285999999265;2502
463;1.3943903999997929;2501
464;1.3974785000000338;2501
465;1.4004468000002817;2501
466;1.4034473000001526;2501
467;1.4064508999999816;2500
468;1.4094457999999577;2500
469;1.412164500000472;2500
470;1.4154206000002887;2499
471;1.4182956000004197;2499
472;1.421296500000608;2499
473;1.423569000000498;2499
474;1.4266302000005453;2499
475;1.4296656000005896;2498
476;1.4326145000004544;2498
477;1.435449200000221;2498
478;1.4386782999999923;2497
479;1.441606700000193;2497
480;1.4446206000002348;2497
481;1.4476080000004004;2497
482;1.4503468000002613;2496
483;1.4534770000000208;2496
484;1.456392400000368;2496
485;1.4592053000005762;2496
486;1.4625974000000497;2495
487;1.4653312999998889;2495
488;1.4684597000004942;2495
489;1.4712888000003659;2495
490;1.4744151000004422;2494
491;1.4772747000006348;2494
492;1.4804174000000785;2494
493;1.4834486999998262;2493
494;1.4861666000006153;2493
495;1.4891959000005954;2493
496;1.4922450000003664;2492
497;1.495486400000118;2491
498;1.4983616999998048;2490
499;1.5015634000001228;2490
500;1.5046533000004274;2489
501;1.5077086999999665;2489
502;1.510732800000369;2488
503;1.5136765000006562;2488
504;1.5167916000000332;2487
505;1.5201929000004384;2486
506;1.523773699999765;2485
507;1.5266646000000037;2484
508;1.5296214999998483;2484
509;1.532344799999919;2484
510;1.5352975000005245;2484
511;1.538202600000659;2484
512;1.5417145999999775;2483
513;1.5445827000003192;2482
514;1.5473768000001655;2482
515;1.5503887000004397;2482
516;1.5532183000004807;2481
517;1.5552238999998735;2481
518;1.558305399999881;2480
519;1.5615562000002683;2480
520;1.5641757000003054;2479
521;1.5675136999998358;2479
522;1.5704579000002923;2480
523;1.5733342000003177;2479
524;1.5762878000005003;2479
525;1.5792803000003914;2479
526;1.5829216000001907;2479
527;1.586358399999881;2478
528;1.5894570000000385;2478
529;1.5924451000000772;2478
530;1.5953017000001637;2478
531;1.5983627000005072;2478
532;1.601278199999797;2477
533;1.6031305000005887;2477
534;1.6051205000003392;2476
535;1.6071827000005214;2476
536;1.6091299999998228;2476
537;1.6111981000003652;2475
538;1.6146091999999044;2475
539;1.6177507000002151;2475
540;1.6201031999999032;2474
541;1.6223189000002094;2474
542;1.6254116000000067;2474
543;1.628542500000549;2473
544;1.6312793000006423;2473
545;1.634371000000101;2473
546;1.637718599999971;2473
547;1.6413775000000896;2472
548;1.6448502000002918;2471
549;1.648730400000204;2470
550;1.6524355000001378;2470
551;1.6552676000001156;2470
552;1.6582876000002216;2469
553;1.6614582000001974;2469
554;1.6644070000002102;2469
555;1.6674334999997882;2468
556;1.670648500000425;2468
557;1.6732513000006293;2468
558;1.6761924000002182;2467
559;1.679183500000363;2467
560;1.6822731000002022;2467
561;1.6856305999999677;2466
562;1.6882922000004328;2466
563;1.6916193000006388;2465
564;1.694575900000018;2464
565;1.697570899999846;2464
566;1.7005613999999696;2463
567;1.7032595000000583;2463
568;1.7063118000005488;2462
569;1.7097070999998323;2461
570;1.7125583000006372;2460
571;1.7153754999999364;2460
572;1.7182198999998946;2460
573;1.7202213000000484;2459
574;1.7232746999998199;2459
575;1.726502100000289;2458
576;1.730399099999886;2457
577;1.7334095000005618;2457
578;1.7361667000004672;2456
579;1.738709000000199;2456
580;1.7412930000000415;2455
581;1.7445255000002362;2455
582;1.7474841000002925;2454
583;1.7504419000006237;2454
584;1.7532741000004535;2453
585;1.7565531000000192;2453
586;1.7593802000001233;2452
587;1.7624163999998927;2451
588;1.7654991999997947;2451
589;1.7683858999998847;2450
590;1.7702964000000065;2450
591;1.7740441000005376;2450
592;1.7763771999998426;2449
593;1.7792607999999746;2448
594;1.7812689000002138;2448
595;1.7832947000006243;2448
596;1.7861201000005167;2448
597;1.7894719000005352;2447
598;1.7926303000003827;2446
599;1.7954155000006722;2446
600;1.7984034000000975;2445
601;1.8011450000003606;2445
602;1.8032408999997642;2444
603;1.8053316000004997;2444
604;1.8082629999998971;2443
605;1.811655299999984;2443
606;1.8146451000002344;2442
607;1.8176720000001296;2442
608;1.820212900000115;2442
609;1.823297900000398;2441
610;1.8264348000002428;2441
611;1.8296810000001642;2441
612;1.8323783000005278;2440
613;1.835283299999901;2439
614;1.8383387000003495;2439
615;1.8413840000002892;2439
616;1.8444199000005028;2438
617;1.8473594000006415;2438
618;1.8504953000001478;2437
619;1.8532468000003064;2437
620;1.8561653000006118;2437
621;1.8592869000003702;2436
622;1.8611070000006293;2436
623;1.86329459999979;2435
624;1.8663352000003215;2434
625;1.869229699999778;2434
626;1.8725014999999985;2434
627;1.8754318999999668;2433
628;1.8784500000001572;2433
629;1.8814276000002792;2432
630;1.8844114000003174;2431
631;1.8872552000002543;2431
632;1.890426099999786;2430
633;1.8934786999998323;2429
634;1.8963880999999674;2429
635;1.8994039999997767;2428
636;1.9022586999999476;2427
637;1.9053860000003624;2427
638;1.9085130000003119;2427
639;1.9112463000001298;2426
640;1.9132980000003954;2425
641;1.9162425000004077;2425
642;1.9182436000000962;2424
643;1.9202094000002035;2424
644;1.9232224000006681;2423
645;1.9263601000002382;2423
646;1.9294891999998072;2422
647;1.932374200000595;2422
648;1.9355611999999383;2421
649;1.9382427000000462;2421
650;1.9414363000005324;2420
651;1.9445331000006263;2420
652;1.947374000000309;2418
653;1.950454400000126;2417
654;1.953389000000243;2417
655;1.956400300000496;2417
656;1.9594966000004206;2416
657;1.9623860000001514;2415
658;1.9654334000006202;2415
659;1.9684735000000728;2414
660;1.971684300000561;2414
661;1.9746126000000004;2413
662;1.977276399999937;2413
663;1.980518100000154;2412
664;1.9832494000002043;2411
665;1.9862480000001597;2411
666;1.989217600000302;2410
667;1.9913932999997996;2410
668;1.9942312000002858;2409
669;1.9973193000005267;2409
670;2.0004331000000093;2408
671;2.0033360000006724;2407
672;2.006688899999972;2406
673;2.009682900000371;2405
674;2.0127658999999767;2404
675;2.016460400000142;2404
676;2.0193003000003955;2404
677;2.022339500000271;2404
678;2.0253664000001663;2404
679;2.0285021999998207;2403
680;2.031402800000251;2402
681;2.0344503000005716;2402
682;2.0376334000002316;2401
683;2.0404083000003084;2401
684;2.043473200000335;2400
685;2.046442100000604;2399
686;2.049408200000471;2399
687;2.0520888999999443;2398
688;2.054433700000118;2398
689;2.0573848000003636;2397
690;2.0594215000000986;2396
691;2.062638899999911;2396
692;2.0656629000004614;2395
693;2.0683146999999735;2394
694;2.070201900000029;2393
695;2.0727811000006113;2393
696;2.07567840000047;2392
697;2.0785948000002463;2392
698;2.081412399999863;2391
699;2.0844033000003037;2391
700;2.0872301999997944;2390
701;2.089054500000202;2390
702;2.091293399999813;2389
703;2.0948066999999355;2389
704;2.0986948999998276;2387
705;2.1012956000004124;2387
706;2.1048283999998603;2386
707;2.108922600000369;2386
708;2.1126094999999623;2385
709;2.116696000000047;2385
710;2.1192503000002034;2385
711;2.1227279000004273;2384
712;2.125565500000448;2384
713;2.128426400000535;2383
714;2.131285999999818;2382
715;2.1344288000000233;2382
716;2.1374522000005527;2382
717;2.1404464000006556;2381
