;time;amplitude
0;0.003134399999908055;2544
1;0.006418100000701088;2544
2;0.009110599999985425;2544
3;0.011987100000624196;2544
4;0.014966300000196497;2544
5;0.018033199999990757;2544
6;0.021130000000084692;2544
7;0.02501750000010361;2544
8;0.02796940000007453;2545
9;0.03116500000032829;2545
10;0.035357200000362354;2545
11;0.0393634000001839;2544
12;0.04224239999985002;2544
13;0.04490150000037829;2544
14;0.047927500000696455;2544
15;0.051129600000422215;2544
16;0.05441380000047502;2544
17;0.05747940000037488;2544
18;0.0609162999999171;2543
19;0.06406590000005963;2544
20;0.06737070000053791;2544
21;0.07104080000044632;2544
22;0.07392570000047272;2544
23;0.07696730000043317;2543
24;0.08000750000064727;2543
25;0.0831132000002981;2543
26;0.08610490000046411;2543
27;0.08912260000033712;2543
28;0.09205550000024232;2543
29;0.0949865000002319;2543
30;0.09811720000016066;2543
31;0.1010801000002175;2543
32;0.10401150000052439;2543
33;0.10723580000012589;2543
34;0.11100480000004609;2543
35;0.11411190000035276;2544
36;0.1174475000007078;2544
37;0.12139400000069145;2544
38;0.12432119999994029;2544
39;0.12697490000027756;2544
40;0.1299722000003385;2544
41;0.1334661999999298;2544
42;0.13734310000018013;2543
43;0.14038210000035178;2543
44;0.1429902999998376;2543
45;0.14580520000072283;2542
46;0.1491211000002295;2542
47;0.15197510000052716;2542
48;0.15481260000069597;2542
49;0.15767030000006343;2542
50;0.16077990000030695;2542
51;0.16287290000036592;2542
52;0.16583660000014788;2542
53;0.1693953000003603;2541
54;0.17300060000070516;2541
55;0.17626970000037545;2541
56;0.17866050000066025;2540
57;0.18087070000001404;2540
58;0.1839562000004662;2540
59;0.18726150000020425;2540
60;0.18998590000046534;2540
61;0.19285209999998187;2540
62;0.19594250000045577;2539
63;0.19901930000014545;2539
64;0.20200650000060705;2539
65;0.20481199999994715;2538
66;0.2078832000006514;2538
67;0.21077400000012858;2539
68;0.21280410000053962;2539
69;0.2160873000002539;2539
70;0.21930049999991752;2539
71;0.2222144000006665;2539
72;0.2248558999999659;2539
73;0.2278070000002117;2539
74;0.23012840000046708;2539
75;0.23318139999992127;2539
76;0.23625890000039362;2538
77;0.23994390000007115;2538
78;0.2428036000001157;2537
79;0.2447970000002897;2537
80;0.24821520000023156;2537
81;0.2513643000002048;2537
82;0.25528380000014295;2537
83;0.2591412000001583;2536
84;0.2617006999998921;2536
85;0.26489930000025197;2536
86;0.26794299999983195;2535
87;0.27094620000025316;2535
88;0.2739111999999295;2534
89;0.2768031000005067;2534
90;0.27998790000037843;2534
91;0.28384249999999156;2534
92;0.2873161000006803;2534
93;0.2906843000000663;2533
94;0.2927309000006062;2533
95;0.2962215000006836;2533
96;0.2992745000001378;2532
97;0.30200650000006135;2532
98;0.30512630000066565;2532
99;0.30778710000049614;2532
100;0.310906800000339;2532
101;0.31391900000016904;2532
102;0.31730789999983244;2531
103;0.3213114999998652;2531
104;0.32520320000003267;2531
105;0.32952879999993456;2530
106;0.3350832000005539;2530
107;0.34008450000055745;2529
108;0.3448320000006788;2529
109;0.3483854000005522;2528
110;0.3521570000002612;2528
111;0.3551666000003024;2528
112;0.35799219999989873;2527
113;0.3623864000001049;2527
114;0.3663016000000425;2527
115;0.370469100000264;2526
116;0.3742734000006749;2525
117;0.37734809999983554;2525
118;0.3814001000000644;2524
119;0.38417910000043776;2524
120;0.3884086000007301;2524
121;0.3933498000005784;2522
122;0.3973962999998548;2522
123;0.401375200000075;2522
124;0.40544150000005175;2521
125;0.4093484000004537;2522
126;0.4133834000003844;2521
127;0.41741240000010293;2520
128;0.4213491000000431;2520
129;0.42486790000020846;2519
130;0.42834140000013576;2518
131;0.4311929000004966;2517
132;0.4354077000007237;2517
133;0.4383138000002873;2516
134;0.44231850000051054;2516
135;0.4463906999999381;2516
136;0.4503742000006241;2515
137;0.4543419999999969;2515
138;0.45798610000019835;2514
139;0.4624014000000898;2514
140;0.4662458000002516;2514
141;0.46884099999988393;2514
142;0.4734336000001349;2513
143;0.47633370000039577;2512
144;0.48038940000060393;2511
145;0.4844855000001189;2510
146;0.4868126999999731;2510
147;0.48978530000022147;2509
148;0.49331290000009176;2509
149;0.49584450000020297;2508
150;0.4988604000000123;2508
151;0.501822400000492;2508
152;0.5052372999998624;2508
153;0.5080838000003496;2507
154;0.5112859999999273;2507
155;0.515533100000539;2506
156;0.5192556000001787;2505
157;0.5218500999999378;2505
158;0.5248375000001033;2504
159;0.5282627000005959;2503
160;0.5318621000005805;2502
161;0.5352729000005638;2501
162;0.5383103000003757;2501
163;0.5424361000004865;2500
164;0.54528400000072;2499
165;0.5493679999999586;2498
166;0.5532712000003812;2498
167;0.5573617000000013;2497
168;0.5612873999998556;2496
169;0.565394300000662;2495
170;0.569518500000413;2494
171;0.5730582000005597;2493
172;0.5762371999999232;2492
173;0.5788577000002988;2491
174;0.5822396000003209;2490
175;0.585371799999848;2490
176;0.5893107000001692;2489
177;0.592322299999978;2489
178;0.5963259999998627;2488
179;0.5993044000006194;2487
180;0.603314599999976;2486
181;0.607221400000526;2485
182;0.6108592999999019;2484
183;0.6136426000002757;2484
184;0.6156578000000081;2483
185;0.6178579000006721;2483
186;0.6198727000000872;2482
187;0.6230198000002929;2482
188;0.6258643999999549;2481
189;0.6288799000003564;2480
190;0.6317415000003166;2479
191;0.6349270999999135;2479
192;0.6379150000002483;2478
193;0.6406765000001542;2477
194;0.642735299999913;2476
195;0.6457057000006898;2476
196;0.6478895000000193;2475
197;0.6508106999999654;2475
198;0.6528241000005437;2474
199;0.656272700000045;2473
200;0.6602997999998479;2472
201;0.6644322000001921;2471
202;0.6686075000006895;2470
203;0.6720877000007022;2469
204;0.6751465000006647;2469
205;0.6783708000002662;2468
206;0.6808107000006203;2467
207;0.6844244000003528;2467
208;0.6868860000004133;2466
209;0.6904119999999239;2465
210;0.6928005999998277;2464
211;0.6960624000003008;2464
212;0.6992644000001746;2463
213;0.7020333000000392;2463
214;0.7050088000005417;2462
215;0.7077788000005967;2462
216;0.7100522000000637;2461
217;0.7128880000000208;2461
218;0.7157965000005788;2460
219;0.7188995000005889;2459
220;0.7218982000003962;2459
221;0.7247182999999495;2458
222;0.728037800000493;2458
223;0.7309173000003284;2457
224;0.7337339000005159;2456
225;0.7369065000002593;2456
226;0.7397784000004322;2455
227;0.7417049000005136;2454
228;0.7449756000005436;2453
229;0.7476602000006096;2452
230;0.7509404000002178;2451
231;0.7537603999999192;2450
232;0.7557643000000098;2449
233;0.7577366000004986;2449
234;0.7607428000001164;2448
235;0.7628293000007034;2448
236;0.7647534000006999;2447
237;0.7676534000001993;2447
238;0.7698659000006955;2446
239;0.7728764000003139;2445
240;0.7747577999998612;2444
241;0.7768593000000692;2443
242;0.7788052000005337;2443
243;0.7806123000000298;2442
244;0.7828362999998717;2442
245;0.7848002000000633;2441
246;0.7876740000001519;2441
247;0.7898974999998245;2441
248;0.7918290000006891;2441
249;0.7947627000003195;2440
250;0.797030800000357;2440
251;0.7999399000000267;2439
252;0.8028350000004139;2438
253;0.8059802000007039;2437
254;0.8088283000006413;2436
255;0.8107865000001766;2435
256;0.8137798000007024;2435
257;0.8171760000004724;2434
258;0.8201822000000902;2434
259;0.8239139000006617;2433
260;0.827251100000467;2432
261;0.8312542000003305;2431
262;0.8342019000001528;2430
263;0.8372841000000335;2429
264;0.8402247000003626;2428
265;0.8427987000004578;2428
266;0.8459811000002446;2428
267;0.8490836000000854;2427
268;0.852002700000412;2426
269;0.8549616999998761;2425
270;0.8577961000000869;2424
271;0.860811300000023;2423
272;0.864107000000331;2423
273;0.8669902000001457;2422
274;0.8697484000003897;2421
275;0.8730058000001009;2420
276;0.8759776000006241;2419
277;0.8790999000002557;2418
278;0.8819708000000901;2418
279;0.8851019000003362;2417
280;0.8879835000007006;2416
281;0.8907779999999548;2415
282;0.8939823999999135;2415
283;0.8967610999998215;2414
284;0.9000333000003593;2413
285;0.9029934000000139;2413
286;0.9058439999998882;2412
287;0.9089688000003662;2411
288;0.9121267000000444;2409
289;0.9150046000004295;2409
290;0.9179569000007177;2408
291;0.9211089000000356;2407
292;0.9240458000003855;2406
293;0.9269533000006049;2406
294;0.9299693000002662;2405
295;0.9331010000005335;2404
296;0.9359724000005372;2403
297;0.9388638999998875;2402
298;0.9407125000007;2401
299;0.944046999999955;2401
300;0.9471147000003839;2400
301;0.9499742000007245;2399
302;0.9528381999998601;2398
303;0.9560261000005994;2397
304;0.9591527000002316;2396
305;0.9619966999998724;2395
306;0.9649755999998888;2394
307;0.9681438000006892;2393
308;0.9710277000003771;2392
309;0.9738876999999775;2392
310;0.9770447999999305;2391
311;0.9801348000000871;2391
312;0.9830374000002848;2390
313;0.9859796999999162;2390
314;0.9889800000000832;2389
315;0.992178800000147;2388
316;0.9949811000005866;2387
317;0.9980278000002727;2386
318;1.0011481000001368;2385
319;1.0039875000002212;2384
320;1.0071218000002773;2384
321;1.0099694000000454;2383
322;1.0128193000000465;2383
323;1.0158322000006592;2383
324;1.0179972000005364;2382
325;1.0210950999999113;2381
326;1.0238247000006595;2380
327;1.0270164000003206;2380
328;1.0299982000005912;2379
329;1.0331898000004003;2378
330;1.0360214000002088;2378
331;1.0390017999998236;2377
332;1.0421014000003197;2377
333;1.044972400000006;2376
334;1.0480425000005198;2375
335;1.0510063000001537;2375
336;1.0540434000004097;2374
337;1.0570148000006157;2373
338;1.0600051999999778;2373
339;1.0627422000006845;2372
340;1.065994600000522;2372
341;1.0691446000000724;2371
342;1.0719944000002215;2371
343;1.074984900000345;2370
344;1.0780044000002817;2369
345;1.0807788000001892;2368
346;1.0839870999998311;2367
347;1.0870098000004873;2366
348;1.090120300000308;2365
349;1.092998500000249;2365
350;1.096127400000114;2363
351;1.0990007000000332;2363
352;1.1019818000004307;2362
353;1.1049755000003643;2362
354;1.1079734000004464;2361
355;1.1110447000000931;2361
356;1.1140019000004031;2361
357;1.1171093000002656;2361
358;1.1199753000000783;2361
359;1.1231324999998833;2360
360;1.125986600000033;2359
361;1.1289051000003383;2359
362;1.1319649000006393;2359
363;1.134999300000345;2358
364;1.1380466000000524;2358
365;1.140701700000136;2357
366;1.1441248000000996;2357
367;1.1469704999999522;2356
368;1.15012680000018;2356
369;1.1529779000002236;2355
370;1.1558469000001423;2355
371;1.158846799999992;2354
372;1.1620065000006434;2354
373;1.1651015000006737;2353
374;1.1680108000000473;2353
375;1.1711279000001014;2352
376;1.1737782999998672;2352
377;1.176107199999933;2352
378;1.178978900000402;2351
379;1.1819992000000639;2350
380;1.185141900000417;2349
381;1.1877859000005628;2349
382;1.1907498999999007;2348
383;1.1940025000003516;2347
384;1.1968132000001788;2346
385;1.1998474000001806;2345
386;1.2029872000002797;2344
387;1.2061293000006117;2344
388;1.2089836000004652;2343
389;1.2121400000005451;2342
390;1.214981600000101;2342
391;1.218126100000518;2341
392;1.2209817000002658;2341
393;1.2239042000001064;2341
394;1.2270023999999466;2340
395;1.2299825999998575;2340
396;1.2331275000005917;2340
397;1.2358182000007218;2340
398;1.2390230000000884;2340
399;1.2419902000001457;2339
400;1.2452165000004243;2339
401;1.2490284000004976;2339
402;1.2524277000002257;2338
403;1.256008600000314;2338
404;1.2590648000004876;2338
405;1.2619776000001366;2338
406;1.2648457000004782;2338
407;1.2679980000002615;2338
408;1.270996300000661;2337
409;1.2737388000005012;2337
410;1.2769451000003755;2337
411;1.2800794000004316;2336
412;1.282953400000224;2337
413;1.2861253000000943;2336
414;1.288698100000147;2336
415;1.2918632999999318;2335
416;1.294952000000194;2335
417;1.2979974999998376;2334
418;1.3009634999998525;2333
419;1.3039893000004668;2333
420;1.307030300000406;2332
421;1.3100051000001258;2332
422;1.31310780000058;2332
423;1.3161135999998805;2332
424;1.3190990000002785;2332
425;1.32181060000039;2332
426;1.3252160000001822;2331
427;1.3295133999999962;2332
428;1.3333584000001792;2331
429;1.3373752000006789;2331
430;1.3409102000005078;2330
431;1.344090700000379;2330
432;1.3470907000000807;2330
433;1.350077500000225;2330
434;1.3531290999999328;2330
435;1.35612140000012;2330
436;1.359118600000329;2330
437;1.362127700000201;2330
438;1.3651159000000916;2331
439;1.3678231000003507;2331
440;1.3711137999998755;2332
441;1.373775800000658;2331
442;1.3771284000004016;2332
443;1.3801124999999956;2332
444;1.3830123000007006;2331
445;1.3860981000007087;2331
446;1.3890994000003047;2331
447;1.3921135000000504;2331
448;1.395089000000553;2331
449;1.397979899999882;2331
450;1.401101600000402;2330
451;1.4040960000002087;2330
452;1.4070414000007077;2331
453;1.4101110000001427;2331
454;1.413098600000012;2331
455;1.416104599999926;2330
456;1.4191143000007287;2331
457;1.4221068000006198;2331
458;1.4250933000002988;2331
459;1.4281164000003628;2331
460;1.4309915000003457;2331
461;1.4340976000003138;2332
462;1.4371461999999156;2332
463;1.4401189000000159;2331
464;1.443113500000436;2332
465;1.4458604999999807;2332
466;1.4491211000004114;2332
467;1.4521328000000722;2332
468;1.4550974000003407;2333
469;1.4581140000000232;2333
470;1.461090900000272;2333
471;1.4641190000002098;2334
472;1.4671182000001863;2334
473;1.4701038000002882;2333
474;1.473114400000668;2333
475;1.4761105000006864;2333
476;1.4788335000002917;2333
477;1.4818341999998665;2333
478;1.4848478000003524;2333
479;1.4868265000004612;2334
480;1.488814100000127;2334
481;1.4906356000001324;2334
482;1.4928092000000106;2334
483;1.495841200000541;2334
484;1.4978191999998671;2334
485;1.4998249999998734;2334
486;1.5018651000000318;2335
487;1.5048886000004131;2335
488;1.5078184000003603;2334
489;1.5098226000000068;2335
490;1.512809599999855;2335
491;1.5158050000000003;2335
492;1.5178223000002617;2335
493;1.5208734000007098;2336
494;1.5228629000002911;2336
495;1.5258731000003536;2336
496;1.5288734000005206;2336
497;1.5317912000000433;2336
498;1.5338834000003772;2337
499;1.5358768000005512;2337
500;1.5376308000004428;2337
501;1.5397179999999935;2337
502;1.542014100000415;2338
503;1.5453354999999647;2338
504;1.5482123000001593;2338
505;1.5511794000003647;2339
506;1.5542012000005343;2339
507;1.55713520000063;2340
508;1.560128000000077;2339
509;1.563116700000137;2339
510;1.5661465000002863;2339
511;1.5691341000001557;2340
512;1.572135100000196;2339
513;1.575140800000554;2339
514;1.5781474000004891;2339
515;1.5809520000002522;2339
516;1.5840054999998756;2340
517;1.5866756000004898;2340
518;1.5888586000000942;2340
519;1.5908126000003904;2340
520;1.594418200000291;2340
521;1.5982043000003614;2340
522;1.6012140000002546;2340
523;1.6050810000006095;2341
524;1.6080669000002672;2341
525;1.6109787000004872;2342
526;1.613976000000548;2342
527;1.6171082000000752;2342
528;1.6200071000002936;2343
529;1.6229929999999513;2343
530;1.6259871000002022;2343
531;1.6290110999998433;2343
532;1.6321301000007225;2344
533;1.6350099000001137;2344
534;1.6380067000000054;2345
535;1.6408937000005608;2345
536;1.643997500000296;2345
537;1.6471302999998443;2346
538;1.649808000000121;2346
539;1.6530063000000155;2347
540;1.6560479999998279;2348
541;1.6590102999998635;2348
542;1.6621263000006365;2348
543;1.6649955000002592;2349
544;1.668137800000295;2349
545;1.6709350999999515;2349
546;1.6738173000003371;2349
547;1.6759852000004685;2349
548;1.6790171000002374;2350
549;1.682178300000487;2350
550;1.6851374000007127;2350
551;1.688032099999873;2351
552;1.6908286000007138;2351
553;1.6940180999999939;2351
554;1.6967767000005551;2352
555;1.6988719999999375;2352
556;1.7019232000002376;2352
557;1.7048608000004606;2353
558;1.7078295000001162;2353
559;1.7097816000004968;2353
560;1.7117831000005026;2354
561;1.7150773000003028;2354
562;1.717910500000471;2355
563;1.7209103000004689;2355
564;1.723598700000366;2356
565;1.7268684999999095;2356
566;1.7298587000004773;2356
567;1.7330001999998785;2356
568;1.7358518999999433;2357
569;1.7392927000000782;2357
570;1.7420388000000457;2358
571;1.7451003000005585;2358
572;1.747971900000266;2359
573;1.7508506000003763;2359
574;1.7538463999999294;2359
575;1.757265400000506;2360
576;1.7598533000000316;2361
577;1.7617127000003165;2361
578;1.7649334000007002;2362
579;1.7683110000007218;2362
580;1.7723931000000448;2363
581;1.775876600000629;2363
582;1.7777819000002637;2363
583;1.7812897000003431;2364
584;1.784236100000271;2364
585;1.787108200000148;2365
586;1.7904770000004646;2365
587;1.7927693999999974;2366
588;1.7958445000003849;2366
589;1.7989410999998654;2366
590;1.8017559999998412;2366
591;1.804121799999848;2367
592;1.8070364000004702;2367
593;1.8098551000002772;2368
594;1.8117275000004156;2368
595;1.8149601000004623;2369
596;1.8183150000004389;2370
597;1.8212194000007003;2371
598;1.823932799999966;2371
599;1.8268600000001243;2372
600;1.8288384000006772;2372
601;1.8317575999999463;2372
602;1.8349852999999712;2373
603;1.837967700000263;2373
604;1.8407381000006353;2373
605;1.8437991000000693;2374
606;1.8458432000006724;2374
607;1.8493734000003315;2374
608;1.8522630000006757;2375
609;1.8559273999999277;2375
610;1.8591249000000971;2376
611;1.8617743000004339;2376
612;1.8650477999999566;2377
613;1.8680957000005947;2378
614;1.8711536000000706;2378
615;1.873848199999884;2378
616;1.8769224000006943;2379
617;1.879939899999954;2379
618;1.882988899999873;2380
619;1.8860356000004685;2381
620;1.8893155000005208;2381
621;1.8918902000004891;2381
622;1.8938414000003831;2381
623;1.8957921999999598;2382
624;1.8979214999999385;2382
625;1.9008641000000353;2382
626;1.9038755000001402;2383
627;1.9068684000003486;2384
628;1.9087850000005346;2385
629;1.9119258000000627;2385
630;1.9148025000004054;2386
631;1.9176750000005995;2387
632;1.9199220999998943;2387
633;1.9220445999999356;2388
634;1.9247906999999032;2388
635;1.92677249999997;2389
636;1.9298136000006707;2389
637;1.9329619000000093;2390
638;1.9358295000001817;2390
639;1.9389608999999837;2391
640;1.9422226000006049;2391
641;1.9448228000001109;2392
642;1.9479326000000583;2393
643;1.9508007000004;2393
644;1.9543192000001;2394
645;1.957132300000012;2395
646;1.959861400000591;2395
647;1.9629438000001755;2396
648;1.9658818000007159;2397
649;1.9693057000004046;2398
650;1.9722388999998657;2399
651;1.9751018000006297;2399
652;1.9777637000006507;2399
653;1.9797347000003356;2400
654;1.981891600000381;2400
655;1.9849242000000231;2400
656;1.988108900000043;2401
657;1.9907170000005863;2401
658;1.9938240000001315;2402
659;1.9960766000003787;2403
660;1.9992943000006562;2403
661;2.0034083999998984;2404
662;2.006338400000459;2405
663;2.008864500000527;2405
664;2.011830000000373;2406
665;2.01483189999999;2407
666;2.018350299999838;2408
667;2.022273900000073;2409
668;2.0259831000003032;2410
669;2.0290242000000944;2410
670;2.03181880000011;2410
671;2.0353070999999545;2411
672;2.0382620999998835;2411
673;2.0407506999999896;2412
674;2.043886100000236;2412
675;2.0468052000005628;2413
676;2.049701300000379;2414
677;2.052770199999941;2414
678;2.055775700000595;2415
679;2.057738900000004;2416
680;2.0608202000003075;2417
681;2.062769600000138;2417
682;2.06491940000069;2418
683;2.067933400000584;2418
684;2.0709600999998656;2419
685;2.0737601000000723;2420
686;2.0768269000000146;2420
687;2.0798161000002438;2421
688;2.0829858000006425;2422
689;2.086102199999914;2423
690;2.0891191999999137;2424
691;2.0920271000004504;2424
692;2.094871900000726;2424
693;2.0978445999999167;2425
694;2.0997634000004837;2426
695;2.103185700000722;2426
696;2.106044600000132;2427
697;2.1090314000002763;2428
698;2.112065000000257;2428
699;2.115076600000066;2429
700;2.1178092999998626;2430
701;2.1211229000000458;2430
702;2.12373209999987;2431
703;2.1257627000004504;2431
704;2.127798100000291;2431
705;2.1309202000002188;2432
706;2.133881900000233;2432
707;2.136973100000432;2433
708;2.1399430999999822;2433
709;2.1428580000001602;2434
710;2.1447932000000947;2434
711;2.146901699999944;2434
712;2.1503341000006913;2434
713;2.1543740000006437;2435
714;2.157876700000088;2435
715;2.160837100000208;2436
716;2.16386650000004;2437
717;2.1673224000005575;2437
718;2.170158700000684;2438
