;time;amplitude
0;0.002749999999650754;2363
1;0.005780800000138697;2363
2;0.00870630000008532;2362
3;0.011711000000104832;2362
4;0.01462230000015552;2362
5;0.0175440000002709;2362
6;0.020537399999739137;2361
7;0.0236854000004314;2361
8;0.02657550000003539;2361
9;0.029618999999911466;2361
10;0.03262619999986782;2361
11;0.035582200000135344;2360
12;0.03913079999983893;2360
13;0.0416058000000703;2360
14;0.04458650000015041;2360
15;0.04762639999989915;2359
16;0.05059549999987212;2359
17;0.053531200000179524;2358
18;0.056639800000084506;2358
19;0.059570000000348955;2358
20;0.06253990000004706;2357
21;0.06554959999994026;2357
22;0.06853070000033767;2357
23;0.07050080000044545;2356
24;0.07347409999965748;2356
25;0.07651379999970231;2357
26;0.07943489999979647;2357
27;0.08244190000004892;2356
28;0.08544499999970867;2356
29;0.08855120000043826;2356
30;0.09143700000004173;2355
31;0.09456669999963196;2355
32;0.09751469999991969;2355
33;0.10056660000009288;2355
34;0.1036616999999751;2355
35;0.10657520000040677;2354
36;0.10944149999977526;2354
37;0.11252280000007886;2354
38;0.11547520000021905;2354
39;0.11840940000001865;2354
40;0.12270020000050863;2353
41;0.12742580000031012;2353
42;0.1320383000002039;2353
43;0.13445250000040687;2352
44;0.13758489999963786;2353
45;0.1406673999999839;2353
46;0.14364170000044396;2353
47;0.14651930000036373;2352
48;0.14952910000010888;2352
49;0.15256030000000464;2352
50;0.1558791999996174;2352
51;0.15848710000045685;2352
52;0.16144830000030197;2351
53;0.1634412000003067;2351
54;0.16545860000042012;2351
55;0.1684744000003775;2351
56;0.1703522999996494;2351
57;0.17349920000015118;2351
58;0.17649249999976746;2351
59;0.17943780000041443;2351
60;0.1814383999999336;2350
61;0.18442210000011983;2350
62;0.18743720000020403;2350
63;0.1904844000000594;2349
64;0.19351350000033563;2349
65;0.19642190000013215;2349
66;0.1983645999998771;2349
67;0.2003909000004569;2349
68;0.20330530000046565;2350
69;0.20660029999999097;2350
70;0.2093310999998721;2349
71;0.21140480000030948;2349
72;0.21335050000016054;2349
73;0.21653520000018034;2349
74;0.21947389999968436;2349
75;0.22248800000033953;2349
76;0.2254174999998213;2349
77;0.22844359999999142;2350
78;0.23142989999996644;2350
79;0.2344589000003907;2350
80;0.2374442000000272;2350
81;0.2404831000003469;2350
82;0.24338729999999487;2350
83;0.24540950000027806;2350
84;0.24729610000031244;2350
85;0.2492792000002737;2350
86;0.2513133000002199;2350
87;0.25337709999985236;2350
88;0.25644259999990027;2350
89;0.2584022000000914;2350
90;0.26135189999968134;2351
91;0.2633733000002394;2351
92;0.26543390000006184;2352
93;0.2683981000000131;2352
94;0.27149550000012823;2352
95;0.27341510000042035;2352
96;0.2753543999997419;2352
97;0.2773317000001043;2352
98;0.279251199999635;2352
99;0.281278100000236;2352
100;0.2832195999999385;2352
101;0.2852515000004132;2352
102;0.2873714999996082;2352
103;0.2893825999999535;2352
104;0.29242510000040056;2352
105;0.29446999999981927;2352
106;0.2975827999998728;2352
107;0.30029670000021724;2352
108;0.3023960000000443;2352
109;0.3053006000000096;2352
110;0.30743429999984073;2352
111;0.3105905000002167;2352
112;0.31340710000040417;2352
113;0.31663469999966765;2352
114;0.3194198999999571;2352
115;0.3213864999997895;2352
116;0.32449170000018057;2352
117;0.3274295000001075;2353
118;0.33060290000048553;2352
119;0.3333234000001539;2352
120;0.33629130000008445;2352
121;0.33875199999965844;2351
122;0.3424230999999054;2351
123;0.345573599999625;2351
124;0.34864290000041365;2350
125;0.3515530000004219;2350
126;0.35435640000014246;2350
127;0.35650170000008075;2350
128;0.3595788000002358;2350
129;0.36234719999993104;2350
130;0.36442910000005213;2350
131;0.36724320000030275;2350
132;0.36939020000045275;2350
133;0.37129000000004453;2350
134;0.3744291000002704;2350
135;0.37757909999982076;2349
136;0.38039690000005066;2350
137;0.3827461000000767;2350
138;0.38562610000008135;2350
139;0.38864879999982804;2350
140;0.391838600000483;2350
141;0.39454829999976937;2349
142;0.397575400000278;2349
143;0.40047359999971377;2350
144;0.40336500000012165;2350
145;0.4065024000001358;2350
146;0.40841720000025816;2351
147;0.41031480000037845;2351
148;0.41235750000032567;2351
149;0.414304799999627;2351
150;0.4164447000002838;2350
151;0.41844399999990856;2351
152;0.42029180000008637;2351
153;0.42237870000008115;2351
154;0.42591559999982564;2352
155;0.42950810000002093;2352
156;0.4316078000001653;2352
157;0.43446080000012444;2351
158;0.4362743000001501;2351
159;0.4384455999997954;2351
160;0.4413752000000386;2351
161;0.44365209999978106;2351
162;0.44657439999991766;2351
163;0.4493979999997464;2351
164;0.4513051000003543;2352
165;0.4533295999999609;2351
166;0.45551460000024235;2352
167;0.45880380000016885;2352
168;0.4618001999997432;2352
169;0.4658484000001408;2352
170;0.46879919999992126;2352
171;0.4714784999996482;2352
172;0.47481150000021444;2352
173;0.4788083000003098;2352
174;0.4817436000002999;2351
175;0.48581709999962186;2351
176;0.4884313000002294;2351
177;0.4919589000000997;2352
178;0.4944218999999066;2351
179;0.49786260000018956;2351
180;0.5009683999996923;2351
181;0.50352920000023;2351
182;0.5064930999997159;2352
183;0.509570199999871;2352
184;0.512476500000048;2352
185;0.5156189999997878;2352
186;0.518784400000186;2352
187;0.521514400000342;2352
188;0.524753900000178;2352
189;0.5276780000003782;2352
190;0.5306668000002901;2352
191;0.5336734000002252;2352
192;0.5364222999996855;2352
193;0.5394730999996682;2352
194;0.543040600000495;2352
195;0.546986299999844;2352
196;0.5509861000000456;2352
197;0.5545861999999033;2352
198;0.5579078000000663;2352
199;0.560912300000382;2352
200;0.5639721999996254;2351
201;0.5679227999999057;2351
202;0.570485500000359;2351
203;0.5736929000004238;2351
204;0.5769747000003917;2351
205;0.5799183999997695;2351
206;0.5829151999996611;2350
207;0.5859025999998266;2350
208;0.5885034000002634;2350
209;0.5918004000004657;2350
210;0.5948312999998961;2350
211;0.5980141000000003;2350
212;0.6004370999999082;2350
213;0.60344780000014;2350
214;0.6064532999998846;2350
215;0.6098179000000528;2350
216;0.6137939999998707;2350
217;0.6167569999997795;2350
218;0.6193696000000273;2350
219;0.6215948999997636;2350
220;0.6247628999999506;2350
221;0.6290265999996336;2349
222;0.6331613000002108;2350
223;0.6364892999999938;2350
224;0.6395929000000251;2350
225;0.6427843000001303;2350
226;0.6468210000002728;2349
227;0.6507573999997476;2349
228;0.6533630000003541;2350
229;0.6563790000000154;2350
230;0.6584628000000521;2350
231;0.6614307999998346;2350
232;0.6648839999998017;2350
233;0.6674473000002763;2350
234;0.6693224000000555;2350
235;0.6713398000001689;2350
236;0.6743831000003411;2350
237;0.677645300000222;2350
238;0.6805207999996128;2350
239;0.6835485999999946;2350
240;0.6855232999996588;2350
241;0.6883780999996816;2351
242;0.6915367000001424;2350
243;0.6943977999999333;2350
244;0.6974964000000909;2350
245;0.7007835000003979;2350
246;0.7034132999997382;2350
247;0.7055554999997184;2350
248;0.7084180000001652;2350
249;0.7104120000003604;2350
250;0.7133899000000383;2351
251;0.7165413000002445;2351
252;0.7185107000004791;2352
253;0.7214461000003212;2351
254;0.7235379000003377;2351
255;0.7266007999996873;2351
256;0.7295819999999367;2351
257;0.7324553999997079;2351
258;0.7354267000000618;2351
259;0.7384666999996625;2351
260;0.741630499999701;2351
261;0.7445134999998118;2351
262;0.7474259000000529;2350
263;0.7494459999998071;2350
264;0.7526140999998461;2350
265;0.7553733000004286;2350
266;0.7574334999999337;2350
267;0.7605623999997988;2350
268;0.7633843000003253;2350
269;0.7666017999999895;2350
270;0.7693686000002344;2350
271;0.7727070999999341;2351
272;0.7753350000002683;2350
273;0.7776856999998927;2350
274;0.7804937999999311;2350
275;0.7832839000002423;2351
276;0.7852642999996533;2351
277;0.7876126999999542;2351
278;0.7903524000003017;2350
279;0.792293299999983;2350
280;0.7942578000001959;2350
281;0.7962838000003103;2350
282;0.7982961999996405;2350
283;0.8003039000004719;2350
284;0.8025244999998904;2350
285;0.8044431999996959;2350
286;0.8063025999999809;2350
287;0.8083072999997967;2350
288;0.810278300000391;2349
289;0.8123341999998956;2349
290;0.8142645999996603;2349
291;0.8162867999999435;2349
292;0.8182738000004974;2349
293;0.8204384000000573;2349
294;0.824541699999827;2349
295;0.8278736000002027;2349
296;0.8303022000000055;2350
297;0.8335931000001437;2350
298;0.8367091000000073;2350
299;0.8396343000003981;2350
300;0.842537600000469;2350
301;0.8455150999998295;2349
302;0.8485455000000002;2350
303;0.8515090000000782;2350
304;0.8534398000001602;2351
305;0.8554469999999128;2351
306;0.858343099999729;2351
307;0.8614974000001894;2351
308;0.8643173999998908;2351
309;0.8665311000004294;2351
310;0.8695118000005095;2352
311;0.8724068000001353;2352
312;0.8753751000003831;2352
313;0.8777030000001105;2352
314;0.880329200000233;2352
315;0.8823291999997309;2352
316;0.8845542999997633;2352
317;0.8874163000000408;2352
318;0.8893312000000151;2352
319;0.8913761000003433;2352
320;0.8935198999997738;2352
321;0.89647210000021;2352
322;0.8994560000001002;2351
323;0.9029237000004287;2351
324;0.9055637999999817;2351
325;0.9087023000001864;2351
326;0.9118749999997817;2351
327;0.9146536999996897;2351
328;0.9176235000004453;2351
329;0.920515499999965;2351
330;0.9235835999998017;2350
331;0.926371300000028;2350
332;0.9283802999998443;2350
333;0.9304669000002832;2350
334;0.9333475000003091;2350
335;0.9353496000003361;2350
336;0.9373814000000493;2350
337;0.9393473999998605;2350
338;0.9413768000003984;2350
339;0.9434155999997529;2350
340;0.9454326000004585;2350
341;0.9473629000003712;2350
342;0.9494860000004337;2351
343;0.9514275999999882;2351
344;0.9546006999999008;2351
345;0.9563772000001336;2351
346;0.9583746999996947;2351
347;0.9603403000000981;2351
348;0.9625566000004255;2351
349;0.9655416000005062;2351
350;0.9686951000003319;2352
351;0.9714365999998336;2352
352;0.9743902999998681;2353
353;0.9763466000003973;2353
354;0.9793257999999696;2352
355;0.9814836000005016;2352
356;0.9834946000000855;2352
357;0.986511099999916;2353
358;0.9896832000003997;2352
359;0.9925620000003619;2353
360;0.9952941999999894;2353
361;0.9974523000000772;2353
362;1.00038399999994;2353
363;1.0034967000001416;2353
364;1.0064664999999877;2353
365;1.0093118000004324;2353
366;1.011305099999845;2353
367;1.0132995000003575;2353
368;1.0152189999998882;2353
369;1.0174549000003026;2353
370;1.019270900000265;2354
371;1.021194199999627;2354
372;1.0232820000001084;2353
373;1.025295499999629;2353
374;1.0276457999998456;2353
375;1.030393500000173;2353
376;1.032660400000168;2354
377;1.0353062000003774;2353
378;1.0374159000002692;2353
379;1.040657700000338;2354
380;1.0436594000002515;2354
381;1.0466231000000334;2354
382;1.0496605999996973;2354
383;1.052465800000391;2354
384;1.054707899999812;2354
385;1.0576498999998876;2354
386;1.0606260000004113;2354
387;1.063427899999624;2354
388;1.0665877000001274;2354
389;1.06929990000026;2354
390;1.0715550000004441;2354
391;1.0744123000004038;2354
392;1.0763356999996176;2354
393;1.0783299000004263;2354
394;1.0804587000002357;2354
395;1.0823418999998466;2353
396;1.0844746000002488;2354
397;1.0863707999997132;2354
398;1.0885133000001588;2354
399;1.0914628999998968;2354
400;1.094486400000278;2354
401;1.097290300000168;2355
402;1.1004601000004186;2355
403;1.10239300000012;2355
404;1.1044996000000538;2356
405;1.1075017000002845;2356
406;1.1109839000000648;2356
407;1.1148961999997482;2356
408;1.1185230000000956;2356
409;1.121814699999959;2357
410;1.1248301000005085;2357
411;1.1276182000001427;2357
412;1.1307355999997526;2358
413;1.133384699999624;2358
414;1.1364442000003692;2357
415;1.1396664000003511;2357
416;1.14259039999979;2358
417;1.1455753999998706;2358
418;1.1473643999997876;2358
419;1.1503625000004831;2359
420;1.1524285000004966;2359
421;1.1544793000002755;2359
422;1.157384600000114;2358
423;1.1604439000002458;2358
424;1.163447900000392;2359
425;1.1664956000004167;2359
426;1.1694679000001997;2359
427;1.1724449000003005;2358
428;1.175475699999879;2359
429;1.178711800000201;2359
430;1.181619199999659;2359
431;1.1844019999998636;2359
432;1.187584500000412;2359
433;1.1906231000002663;2359
434;1.193589399999837;2359
435;1.196584399999665;2359
436;1.199583800000255;2359
437;1.202985500000068;2359
438;1.2065824000001157;2359
439;1.2097344000003432;2360
440;1.212702900000295;2360
441;1.2167612000002919;2360
442;1.2207254000004468;2361
443;1.2237044000003152;2362
444;1.2267062000000806;2363
445;1.2298604999996314;2363
446;1.2326233000003413;2364
447;1.235410299999785;2363
448;1.2384487999997873;2363
449;1.2415436999999656;2363
450;1.2445098999996844;2364
451;1.2473128000001452;2364
452;1.2504354000002422;2364
453;1.2525437000003876;2364
454;1.2544847999997728;2364
455;1.2573306000003868;2364
456;1.2604330000003756;2363
457;1.2633544000000256;2364
458;1.2658277999998973;2364
459;1.2696332000004986;2364
460;1.2726442000002862;2365
461;1.2755657999996401;2365
462;1.2785671999999977;2366
463;1.2819687999999587;2366
464;1.28466010000011;2366
465;1.2875110000004497;2366
466;1.290589600000203;2366
467;1.2936201000002256;2367
468;1.2965288000004875;2366
469;1.2995178999999553;2366
470;1.3025635000003604;2366
471;1.3043354000001273;2366
472;1.3076149999997142;2366
473;1.3105335000000196;2367
474;1.3135571000002528;2368
475;1.316561300000103;2368
476;1.319583600000442;2368
477;1.3227207999998427;2369
478;1.3255810999999085;2369
479;1.3285734999999477;2370
480;1.331890000000385;2370
481;1.3344583999996757;2371
482;1.337385599999834;2371
483;1.3409035000004224;2371
484;1.3437657000004037;2371
485;1.3465564999996786;2371
486;1.3497011999997994;2371
487;1.352515399999902;2371
488;1.355430200000228;2371
489;1.3586065999998027;2372
490;1.361777400000392;2372
491;1.364505200000167;2372
492;1.367497000000185;2372
493;1.3692395999996734;2373
494;1.3715745999998035;2373
495;1.3745177999999214;2373
496;1.377466099999765;2373
497;1.3806258000004163;2373
498;1.3839794000004986;2374
499;1.3879201999998259;2374
500;1.390721499999927;2374
501;1.393608200000017;2375
502;1.3965773999998419;2375
503;1.3996022999999695;2374
504;1.4025973999996495;2375
505;1.405714800000169;2375
506;1.4085967000000892;2376
507;1.4114731999998185;2376
508;1.4134299999996074;2376
509;1.415682800000468;2377
510;1.418689799999811;2377
511;1.421673699999701;2378
512;1.424525999999787;2379
513;1.4276159000000916;2379
514;1.4304654999996274;2379
515;1.4336332000002585;2379
516;1.4366196999999374;2380
517;1.4396405999996205;2380
518;1.4426101999997627;2380
519;1.4454427000000578;2380
520;1.448648399999911;2381
521;1.4517746999999872;2380
522;1.4544439999999668;2380
523;1.4573884000001271;2381
524;1.4604840000001786;2381
525;1.463596999999936;2381
526;1.466678800000409;2382
527;1.4694005999999717;2382
528;1.4724685999999565;2383
529;1.47555790000024;2384
530;1.478464200000417;2385
531;1.4805163000000903;2385
532;1.4835706000003483;2385
533;1.4864113000003272;2385
534;1.4893867000000682;2386
535;1.4924118999997518;2386
536;1.4955398000001878;2386
537;1.4984400000003006;2387
538;1.5004724000000351;2387
539;1.5033720000001267;2388
540;1.5063943000004656;2388
541;1.509638300000006;2389
542;1.5124616000002788;2389
543;1.515644400000383;2390
544;1.5185978999998042;2390
545;1.5214347000000998;2391
546;1.5236345000002984;2392
547;1.5265292000003683;2392
548;1.5285099000002447;2393
549;1.5314841999997952;2393
550;1.5347725000001446;2393
551;1.5374709999996412;2394
552;1.540407800000139;2394
553;1.5425444000002244;2394
554;1.5457364000003508;2394
555;1.548564400000032;2395
556;1.5515879000004134;2395
557;1.5548807000004672;2395
558;1.557480000000396;2396
559;1.5606101000003036;2397
560;1.5636062000003221;2397
561;1.5663694000004398;2397
562;1.5686391999997795;2398
563;1.5714128999998138;2398
564;1.5734109000004537;2398
565;1.5753813999999693;2399
566;1.57740240000021;2399
567;1.5795533999998952;2399
568;1.5824282000003222;2399
569;1.5843218999998498;2400
570;1.5874313000003895;2400
571;1.5894804999998087;2401
572;1.5914394999999786;2401
573;1.5933340999999928;2402
574;1.5964923000001363;2402
575;1.5995554000000993;2403
576;1.6025307999998404;2403
577;1.6056957000000693;2403
578;1.6088888000003863;2405
579;1.6117400000002817;2406
580;1.6145045000002938;2406
581;1.6174268000004304;2406
582;1.6194298999998864;2406
583;1.6214368000000832;2406
584;1.623649199999818;2407
585;1.626572600000145;2407
586;1.629724499999611;2406
587;1.6325824000005014;2407
588;1.635889600000155;2407
589;1.6386303999997835;2408
590;1.641606000000138;2408
591;1.644640900000013;2408
592;1.647649900000033;2409
593;1.6507024000002275;2409
594;1.6535409999996773;2410
595;1.6567260000001625;2411
596;1.6594556000000011;2412
597;1.6623179999996864;2412
598;1.6646590999998807;2412
599;1.6674908000004507;2412
600;1.6694346000003861;2412
601;1.6724795000000086;2413
602;1.6754163000005065;2414
603;1.6777829000002384;2414
604;1.6806359000001976;2414
605;1.6837668999996822;2414
606;1.6863702999999077;2415
607;1.6895007000002806;2416
608;1.6914583999996466;2416
609;1.6946198000005097;2416
610;1.697371799999928;2416
611;1.6994912999998633;2417
612;1.70252789999995;2417
613;1.704324500000439;2418
614;1.7065555999997741;2418
615;1.7093543999999383;2419
616;1.711554100000285;2419
617;1.714469000000463;2420
618;1.7180389000004652;2420
619;1.7214771999997538;2421
620;1.7244189000002734;2421
621;1.727870200000325;2422
622;1.730512600000111;2422
623;1.7336066999996547;2423
624;1.7363204000002952;2423
625;1.7384265999999116;2424
626;1.7416290999999546;2424
627;1.744357200000195;2425
628;1.7476005999997142;2426
629;1.750420600000325;2426
630;1.7535101000003124;2427
631;1.7565276000004815;2427
632;1.7594748000001346;2428
633;1.7613948999996865;2428
634;1.763778600000478;2429
635;1.766515199999958;2429
636;1.7694358999997348;2430
637;1.771327499999643;2430
638;1.7735983000002307;2431
639;1.7765400999996928;2431
640;1.7795267000001331;2432
641;1.7825161999999182;2432
642;1.7854663999996774;2432
643;1.7876625999997486;2432
644;1.790407800000139;2432
645;1.7924093000001449;2433
646;1.7944200000001729;2433
647;1.797577999999703;2433
648;1.7994555000004766;2434
649;1.8023670000002312;2434
650;1.805439099999603;2434
651;1.8086049000003186;2435
652;1.8116502000002583;2435
653;1.8144485000002533;2435
654;1.8174770000005083;2435
655;1.8204689000003782;2436
656;1.822428200000104;2437
657;1.8243973999997252;2437
658;1.8264282999998613;2437
659;1.828596800000014;2437
660;1.8316679999998087;2438
661;1.8346106999997573;2438
662;1.8376115000000937;2438
663;1.840701799999806;2439
664;1.8435748000001695;2439
665;1.8464024000004429;2439
666;1.8494477000003826;2440
667;1.8523973000001206;2440
668;1.8547226000000592;2440
669;1.857406699999956;2441
670;1.8595471999997244;2441
671;1.8625610999997662;2441
672;1.8654237000000649;2442
673;1.86747430000014;2443
674;1.8705292000004192;2443
675;1.8733837999998286;2443
676;1.8755963000003248;2444
677;1.8784272000002602;2444
678;1.8813677999996798;2444
679;1.8834014000003663;2444
680;1.8853355999999621;2445
681;1.8873217000000295;2445
682;1.8893288999997822;2445
683;1.8913140000004205;2445
684;1.8933133000000453;2445
685;1.8954780000003666;2445
686;1.8974183000000266;2445
687;1.8997921999998653;2445
688;1.9024747000003117;2446
689;1.905504899999869;2446
690;1.9084960000000137;2447
691;1.9104342999999062;2447
692;1.9124386000003142;2447
693;1.9154633999996804;2448
694;1.9184112000002642;2448
695;1.920333899999605;2449
696;1.923544799999945;2449
697;1.9264192999999068;2450
698;1.9283911000002263;2450
699;1.9303792000000612;2451
700;1.932423899999776;2451
701;1.9353817999999592;2451
702;1.9375708999996277;2451
703;1.940790300000117;2452
704;1.9437238000000434;2453
705;1.9466068000001542;2453
706;1.9497637000004033;2453
707;1.9525174000000334;2454
708;1.954694500000187;2454
709;1.9575427999998283;2454
710;1.960447600000407;2455
711;1.962583600000471;2455
712;1.964404000000286;2456
713;1.9666041000000405;2456
714;1.969432699999743;2457
715;1.971531000000141;2457
716;1.9750077999997302;2457
717;1.9794045999997252;2458
