;time;amplitude
0;0.0030913000000509783;2365
1;0.006115499999395979;2365
2;0.009201899999425223;2365
3;0.012147299999924144;2365
4;0.015094399999725283;2365
5;0.01806829999986803;2365
6;0.02120039999954315;2365
7;0.02415859999928216;2365
8;0.027130399999805377;2365
9;0.030008099999577098;2365
10;0.033071999999265245;2365
11;0.0361548999999286;2364
12;0.039044099999955506;2364
13;0.04215659999954369;2364
14;0.04520879999927274;2364
15;0.048698099999455735;2364
16;0.05217889999948966;2364
17;0.055010599999150145;2364
18;0.058211899999150774;2364
19;0.061300499999561;2363
20;0.06424259999948845;2363
21;0.06687299999975949;2363
22;0.07000349999998434;2363
23;0.07312149999961548;2363
24;0.07613819999914995;2364
25;0.0790950000000521;2364
26;0.08198699999957171;2364
27;0.08495159999984025;2364
28;0.08800019999944197;2364
29;0.09108990000004269;2364
30;0.09403649999967456;2364
31;0.09692479999921488;2364
32;0.10000319999926433;2363
33;0.10287879999941651;2364
34;0.10600929999964137;2364
35;0.10913009999967471;2364
36;0.11213629999929253;2364
37;0.11500099999921076;2365
38;0.11794319999989966;2365
39;0.12105949999931909;2365
40;0.12408619999951043;2365
41;0.12708409999959258;2365
42;0.12983929999973043;2365
43;0.1320886999992581;2365
44;0.13499969999975292;2365
45;0.13822549999986222;2365
46;0.14109109999935754;2365
47;0.14409379999960947;2366
48;0.14687439999943308;2366
49;0.15012939999996888;2365
50;0.15309349999915867;2365
51;0.15616819999922882;2366
52;0.15899499999977706;2366
53;0.16289679999954387;2366
54;0.1663630999992165;2366
55;0.1705138999996052;2366
56;0.17432179999923392;2366
57;0.17808160000004136;2366
58;0.18109739999999874;2366
59;0.18402819999937492;2366
60;0.18722889999935433;2365
61;0.1912782999997944;2365
62;0.19531029999961902;2366
63;0.19806849999986298;2366
64;0.20118419999926118;2366
65;0.20505989999946905;2366
66;0.20803459999933693;2366
67;0.2110224999996717;2366
68;0.21391139999923325;2366
69;0.21725249999963125;2366
70;0.21989829999984067;2365
71;0.22300689999974566;2365
72;0.22598849999940285;2365
73;0.22880869999971765;2365
74;0.23091279999971448;2365
75;0.2339241999998194;2365
76;0.23688529999981256;2366
77;0.2398840999994718;2365
78;0.2429125999997268;2365
79;0.2458833999999115;2365
80;0.248089899999286;2365
81;0.2508276999997179;2366
82;0.2539930999992066;2366
83;0.25681989999975485;2366
84;0.26004249999914464;2366
85;0.26285729999926843;2366
86;0.2662518999995882;2367
87;0.26905059999990044;2367
88;0.2719941999994262;2367
89;0.2750470999999379;2367
90;0.27784840000003896;2368
91;0.2809345999994548;2368
92;0.2838421999995262;2368
93;0.28599409999969794;2368
94;0.2891783999994004;2368
95;0.2921692999998413;2369
96;0.2950377999995908;2369
97;0.2981620999998995;2369
98;0.3009266999997635;2369
99;0.3040337999991607;2369
100;0.3070390999992014;2369
101;0.310083699999268;2369
102;0.31276729999990494;2369
103;0.3148291999996218;2369
104;0.3168084999997518;2369
105;0.3188074999998207;2370
106;0.32202829999914684;2370
107;0.3250356999997166;2369
108;0.32790059999933874;2369
109;0.3297943999996278;2369
110;0.3330741999998281;2370
111;0.3358366999991631;2370
112;0.3390540999998848;2370
113;0.3420743999995466;2369
114;0.34520859999975073;2369
115;0.34802049999962037;2369
116;0.3507583999999042;2370
117;0.3531087999999727;2370
118;0.35597599999982776;2370
119;0.358849299999747;2370
120;0.36197139999967476;2370
121;0.3649664999993547;2370
122;0.36814329999924666;2370
123;0.3713254999993296;2370
124;0.3743685999997979;2370
125;0.3773420999996233;2370
126;0.37978339999972377;2370
127;0.38199509999958536;2370
128;0.38507789999948727;2371
129;0.38804699999946024;2371
130;0.3911779000000024;2371
131;0.3940454999992653;2370
132;0.3969035999998596;2370
133;0.39890679999916756;2370
134;0.4020255999994333;2370
135;0.40496619999976247;2370
136;0.40805189999991853;2370
137;0.41115479999916715;2370
138;0.41393089999928634;2371
139;0.41582409999955416;2371
140;0.418078499999865;2371
141;0.4208616999994774;2371
142;0.42436349999934464;2371
143;0.42848809999941295;2371
144;0.43239879999964614;2371
145;0.43641699999989214;2371
146;0.4409092999994755;2372
147;0.4442189999999755;2372
148;0.4481698999998116;2372
149;0.45138199999928474;2373
150;0.45518879999963247;2373
151;0.45824369999991177;2373
152;0.46190519999981916;2373
153;0.4650625999993281;2373
154;0.46822189999966213;2374
155;0.470999799999845;2374
156;0.47400959999959014;2374
157;0.47717929999998887;2374
158;0.47989179999967746;2375
159;0.4829206999993403;2375
160;0.48596569999972417;2375
161;0.48879349999970145;2375
162;0.4920224999996208;2375
163;0.4950113999993846;2375
164;0.49788469999930385;2375
165;0.5009620999999242;2375
166;0.5041277999998783;2375
167;0.5068481999996948;2376
168;0.508976299999631;2376
169;0.5119970999994621;2376
170;0.5149638999992021;2376
171;0.5179641999993692;2376
172;0.5210205999992468;2376
173;0.5239460999991934;2376
174;0.5270061999999598;2377
175;0.5297271999997974;2377
176;0.532141199999387;2377
177;0.5350072999999611;2377
178;0.5381471999999121;2378
179;0.5410333999998329;2378
180;0.543881099999453;2378
181;0.546892200000002;2378
182;0.5500077999995483;2379
183;0.5530206999992515;2379
184;0.5560464000000138;2379
185;0.5591386999994938;2379
186;0.56202839999969;2379
187;0.5651871999998548;2380
188;0.5680587999995623;2380
189;0.5709499999993568;2380
190;0.5740431999993234;2380
191;0.5769523999997546;2381
192;0.5798744999992778;2380
193;0.5831128999998327;2381
194;0.5860235999998622;2382
195;0.5890371999994386;2382
196;0.5921105999996144;2382
197;0.5949817999999141;2382
198;0.5980750999997326;2382
199;0.6011409999991884;2382
200;0.6040710999996008;2382
201;0.6072358999999778;2382
202;0.6100648999999976;2383
203;0.6128724999998667;2383
204;0.6160876999992979;2383
205;0.6192087999997966;2383
206;0.6220635999998194;2383
207;0.6250749999999243;2384
208;0.6280152999997881;2384
209;0.6310790999996243;2384
210;0.6341895999994449;2384
211;0.6370668999998088;2385
212;0.6398907999991934;2385
213;0.6430740999994669;2385
214;0.6460878999996567;2386
215;0.6491274999998495;2386
216;0.6520669999999882;2386
217;0.6551841999998942;2387
218;0.6579297999996925;2387
219;0.661557399999765;2387
220;0.6649844999992638;2388
221;0.6679405999993833;2388
222;0.671031399999265;2388
223;0.6744173999995837;2389
224;0.6784296999994694;2389
225;0.6821115999991889;2389
226;0.6853424999999334;2389
227;0.6884566999997332;2390
228;0.6913154999992912;2390
229;0.6940089999998236;2390
230;0.6968945999997231;2390
231;0.7002146999993784;2390
232;0.7042959999998857;2391
233;0.7071667000000161;2391
234;0.7100080000000162;2391
235;0.7133313999993334;2391
236;0.7161220999996658;2392
237;0.7206238999997368;2392
238;0.7243398999999044;2392
239;0.7280257999991591;2393
240;0.7313372999997227;2393
241;0.7339077999995425;2393
242;0.7370774999999412;2393
243;0.7400172999996357;2394
244;0.7431745999992927;2394
245;0.746061899999404;2395
246;0.7489583999995375;2395
247;0.7520510999993348;2395
248;0.7551833999996234;2396
249;0.7580343999998149;2396
250;0.760936199999378;2396
251;0.7640963999992891;2396
252;0.7670726999995168;2397
253;0.7701628999993773;2397
254;0.773074199999428;2397
255;0.7761444999996456;2397
256;0.7789348999995127;2398
257;0.7819853999999395;2398
258;0.7849063999992723;2398
259;0.7882723999991867;2398
260;0.7911789999998291;2399
261;0.7940819999994346;2398
262;0.7969356999992669;2399
263;0.8000810999992609;2399
264;0.8032223999998678;2399
265;0.8060802999998486;2400
266;0.8090708999998242;2400
267;0.812003499999264;2400
268;0.8148390999995172;2400
269;0.8171016999995118;2401
270;0.82001499999933;2401
271;0.8228273999993689;2401
272;0.8248881999998048;2402
273;0.8268514999999752;2402
274;0.8298482999998669;2402
275;0.831978799999888;2402
276;0.8349309999994148;2403
277;0.8380213000000367;2403
278;0.8411043999994945;2403
279;0.8441018999992593;2404
280;0.8468882999995913;2404
281;0.8502756999996564;2404
282;0.8532052999998996;2405
283;0.8561121999991883;2405
284;0.8592132999992828;2405
285;0.8620108999994045;2405
286;0.8648874000000433;2405
287;0.8680827999996836;2406
288;0.8708851999999752;2406
289;0.874027599999863;2406
290;0.8768016999993051;2407
291;0.879281099999389;2406
292;0.8823834999993778;2406
293;0.8865452000000005;2407
294;0.8906208999997034;2407
295;0.8942803999998432;2407
296;0.8969440999999279;2407
297;0.9001828999998907;2407
298;0.9030606999995143;2407
299;0.9059007999994719;2408
300;0.90952070000003;2408
301;0.9145336999999927;2408
302;0.9183295999991969;2409
303;0.9230104999996911;2409
304;0.9280612999991718;2409
305;0.9324377999992066;2410
306;0.9367679999995744;2410
307;0.9405832999991617;2410
308;0.9446611999992456;2410
309;0.9482606999999916;2411
310;0.9526507999999012;2411
311;0.956247699999949;2412
312;0.9601127999994787;2412
313;0.9629934999993566;2412
314;0.9662251999998261;2412
315;0.9704855999998472;2413
316;0.9750445999998192;2413
317;0.9781581999995979;2413
318;0.9810405999996874;2413
319;0.9841604999992342;2413
320;0.9869862999994439;2413
321;0.990049099999851;2414
322;0.993026799999825;2414
323;0.996124599999348;2414
324;0.9990807999993194;2415
325;1.0022295999997368;2415
326;1.0051004999995712;2415
327;1.0079830999993646;2416
328;1.0111027999992075;2416
329;1.0140135999999984;2416
330;1.017110199999479;2416
331;1.0201430999995864;2416
332;1.0231535999992047;2416
333;1.0261156999995364;2416
334;1.0291932000000088;2416
335;1.0321070999998483;2416
336;1.0348642999997537;2416
337;1.0381037999995897;2417
338;1.0410047999994276;2417
339;1.044111299999713;2416
340;1.0470957999996244;2417
341;1.0502490999997462;2417
342;1.0531111999998757;2417
343;1.0562356999998883;2418
344;1.0590978000000177;2418
345;1.0619877999997698;2418
346;1.065117299999656;2418
347;1.0682515999997122;2418
348;1.0709891999995307;2418
349;1.0741055999997116;2418
350;1.0772200999999768;2418
351;1.0799725999995644;2418
352;1.0829681999994136;2418
353;1.086102999999639;2419
354;1.089078499999232;2418
355;1.0921076999993602;2418
356;1.0950669999992897;2419
357;1.098034299999199;2418
358;1.1011109999999462;2419
359;1.1042241999994076;2419
360;1.1071038999998564;2419
361;1.1099672999998802;2420
362;1.1128897999997207;2420
363;1.1160034999993513;2420
364;1.119116099999701;2420
365;1.1223001999996995;2420
366;1.1251130999999077;2420
367;1.1281049999997776;2420
368;1.131018199999744;2420
369;1.1340708999996423;2420
370;1.1372129999999743;2420
371;1.1400718999993842;2420
372;1.1429444999994303;2420
373;1.1461050999996587;2420
374;1.1491181999999753;2420
375;1.1522355999995852;2420
376;1.1551009999993767;2420
377;1.1582401999994545;2420
378;1.1611131999998179;2420
379;1.1640158999998675;2421
380;1.167109299999538;2421
381;1.1700162999995882;2421
382;1.1731449999997494;2421
383;1.176076199999443;2421
384;1.1792566999993142;2421
385;1.1821016999992935;2421
386;1.1852289999997083;2420
387;1.1881054999994376;2421
388;1.1909974000000147;2421
389;1.1940948999999819;2420
390;1.1970150999995894;2420
391;1.200127699999939;2420
392;1.2031166999995548;2420
393;1.2062323999998625;2420
394;1.209109399999761;2420
395;1.2119276999992508;2420
396;1.215101599999798;2420
397;1.218141199999991;2420
398;1.221100399999159;2420
399;1.2240932999993674;2420
400;1.2272143000000142;2421
401;1.2299647999998342;2421
402;1.233004499999879;2421
403;1.2361064999995506;2420
404;1.2392341999993732;2420
405;1.2421136999992086;2420
406;1.2449698000000353;2420
407;1.2481702999994013;2420
408;1.2510996999999406;2420
409;1.2542307999992772;2420
410;1.257108399999197;2420
411;1.2599991999995837;2419
412;1.2629473999995753;2419
413;1.266152599999259;2419
414;1.269089399999757;2419
415;1.272106999999778;2419
416;1.275133299999652;2419
417;1.278102599999329;2419
418;1.280963499999416;2419
419;1.2841045999994094;2419
420;1.2872363999995287;2419
421;1.2900997999995525;2419
422;1.2929543999998714;2419
423;1.2961391999997431;2419
424;1.299156099999891;2419
425;1.3020294999996622;2418
426;1.3051171999995859;2418
427;1.3082477999996627;2419
428;1.3111026999995374;2419
429;1.3139470999994955;2419
430;1.3170928999998068;2419
431;1.3202987999993638;2419
432;1.3231544000000213;2419
433;1.3261124999999083;2420
434;1.3292674999993324;2420
435;1.3321445999999924;2420
436;1.3356329999996888;2420
437;1.339527199999793;2420
438;1.3423159999993004;2421
439;1.3465765999999348;2421
440;1.3501603999993677;2421
441;1.354310699999587;2421
442;1.3573411999996097;2421
443;1.3602008999996542;2421
444;1.363067699999192;2422
445;1.3664301999997406;2422
446;1.3705260999995517;2422
447;1.3744833999999173;2422
448;1.3773541000000478;2422
449;1.3812302999995154;2422
450;1.3853715999994165;2421
451;1.3880705999999918;2421
452;1.391048999999839;2421
453;1.394350300000042;2421
454;1.3970434999991994;2421
455;1.4001195999999254;2422
456;1.4032063999993625;2422
457;1.407387899999776;2422
458;1.4103541999993467;2421
459;1.4150207999991835;2421
460;1.4184068999993542;2421
461;1.4223891999999978;2421
462;1.4253429999998843;2421
463;1.4281241999997292;2422
464;1.431018799999947;2422
465;1.4343365999993694;2422
466;1.438442299999224;2421
467;1.442589099999168;2421
468;1.4453582999994978;2421
469;1.4483244999992166;2421
470;1.4513917999993282;2421
471;1.4553962999998475;2421
472;1.458369899999525;2422
473;1.4613313999998354;2422
474;1.465036699999473;2422
475;1.4681446999993568;2422
476;1.4709849999999278;2421
477;1.4740735999994286;2421
478;1.4769453999997495;2421
479;1.479972799999814;2421
480;1.4831142999992153;2421
481;1.486070999999356;2421
482;1.489110299999993;2421
483;1.4921276999994006;2421
484;1.4951081999997768;2421
485;1.4979976999993596;2421
486;1.5011050999992221;2421
487;1.5040022999992289;2421
488;1.5069814999997106;2421
489;1.5101367999996;2421
490;1.5129707999994935;2421
491;1.5160993999998027;2422
492;1.5191440999997212;2422
493;1.5219559999995909;2421
494;1.5249749999993583;2421
495;1.5280077999996138;2421
496;1.531501799999205;2421
497;1.5344014999991487;2421
498;1.537365499999396;2422
499;1.540152799999305;2422
500;1.5433751999999004;2422
501;1.546144799999638;2422
502;1.5490993999992497;2422
503;1.551927099999375;2422
504;1.5550737999992634;2422
505;1.5580515999999989;2422
506;1.5611450999995213;2422
507;1.5640936999998303;2422
508;1.5672085999995033;2421
509;1.5700021999991804;2421
510;1.5729208999991897;2421
511;1.5763444999993226;2421
512;1.5800487999995312;2421
513;1.5834046999998463;2421
514;1.5874492999992071;2421
515;1.5902751999992688;2421
516;1.594467999999324;2421
517;1.5983956999998554;2421
518;1.6009901999996146;2421
519;1.6040855999999621;2421
520;1.607194499999423;2421
521;1.6100972999993246;2421
522;1.6128679999992528;2421
523;1.6150705000000016;2421
524;1.618080799999916;2421
525;1.6212074999994002;2420
526;1.6240900999991936;2420
527;1.6270663999994213;2420
528;1.6299420999994254;2420
529;1.6331083999994007;2420
530;1.6362388999996256;2420
531;1.6390802999994776;2420
532;1.642201899999236;2421
533;1.6450863000000027;2420
534;1.6480466999992132;2420
535;1.6510087999995449;2420
536;1.6538766999992731;2420
537;1.6568895000000339;2420
538;1.658914999999979;2420
539;1.6619730999991589;2420
540;1.6638381999991907;2419
541;1.6658875999992233;2419
542;1.6689591999993354;2419
543;1.670811799999683;2419
544;1.6729090999997425;2419
545;1.6759974999995393;2420
546;1.678942399999869;2419
547;1.6809026999999332;2419
548;1.6830049999998664;2419
549;1.6859663999994154;2419
550;1.6889918999995643;2420
551;1.6919629999993049;2420
552;1.6948192999998355;2420
553;1.696851499999866;2420
554;1.6999736999996458;2420
555;1.7029736999993474;2420
556;1.7059628999995766;2420
557;1.7090024999997695;2420
558;1.7119967999997243;2420
559;1.713981099999728;2420
560;1.7158125999994809;2420
561;1.7189995999997336;2420
562;1.7217857999994521;2420
563;1.7249722999995356;2421
564;1.726984099999754;2421
565;1.7298696999996537;2421
566;1.7328063999993901;2421
567;1.7350056999994194;2421
568;1.7380057000000306;2421
569;1.7399782999991658;2421
570;1.7429263999993054;2421
571;1.7449228999994375;2421
572;1.746815699999388;2421
573;1.7498091999996177;2421
574;1.7529916999992565;2421
575;1.7549022999992303;2421
576;1.756985999999415;2420
577;1.759980999999243;2420
578;1.761877199999617;2420
579;1.7638396999991528;2420
580;1.7669743999995262;2420
581;1.7689464999994016;2420
582;1.771976099999847;2420
583;1.7739060999992944;2420
584;1.7768157000000429;2420
585;1.7798243999995975;2421
586;1.782977299999402;2421
587;1.7849711999997453;2420
588;1.7868839999991906;2420
589;1.7900603999996747;2420
590;1.792962699999407;2420
591;1.795913599999949;2420
592;1.7978833999995913;2420
593;1.7997992000000522;2420
594;1.8018914999993285;2420
595;1.804804299999887;2420
596;1.8069042999995872;2420
597;1.8099975999994058;2420
598;1.8131276999993133;2420
599;1.8175994999992326;2421
600;1.8208858999996664;2421
601;1.8241110999997545;2420
602;1.8274697999995624;2421
603;1.8310105999998996;2421
604;1.833985099999154;2421
605;1.836033999999927;2421
606;1.8389502999998513;2421
607;1.8420164999997723;2421
608;1.8448007999995752;2421
609;1.8480061000000205;2420
610;1.8500335999997333;2420
611;1.8529679999992368;2420
612;1.8559982999995555;2420
613;1.8590251999994507;2420
614;1.8619951999999103;2421
615;1.8640990999992937;2421
616;1.8670272999997906;2421
617;1.8689769999991768;2421
618;1.8717709999991712;2421
619;1.873996499999521;2421
620;1.8760055999991891;2421
621;1.8790153999998438;2421
622;1.8819329999996626;2420
623;1.8838352999991912;2421
624;1.8869439999998576;2421
625;1.890355499999714;2421
626;1.8929802999991807;2421
627;1.8959621999993033;2421
628;1.8991452000000208;2421
629;1.9020332000000053;2421
630;1.9049005999995643;2421
631;1.9069096999992325;2422
632;1.9090733999992153;2422
633;1.9119973999995636;2422
634;1.9138931999996203;2422
635;1.9158496999998533;2422
636;1.9179254999999102;2422
637;1.921062599999459;2423
638;1.9232529999999315;2422
639;1.9263805999999022;2422
640;1.9291643999995358;2422
641;1.9323749999994106;2422
642;1.935444999999163;2422
643;1.9380966999997327;2422
644;1.941052999999556;2421
645;1.9443397999993977;2422
646;1.9475294999992911;2422
647;1.949906299999384;2421
648;1.9518795999993017;2421
649;1.9551664999999048;2421
650;1.958215999999993;2422
651;1.9610201999994388;2422
652;1.964115199999469;2422
653;1.9670872999995481;2422
654;1.9699775999997655;2422
655;1.9730616999995618;2422
656;1.9749078999993799;2422
657;1.9770896999998513;2422
658;1.9799432999998317;2422
659;1.982131699999627;2422
660;1.9851259999995818;2422
661;1.9881335000000036;2422
662;1.9909660999992411;2422
663;1.9940435999997135;2421
664;1.9970734999997148;2422
665;2.000060200000007;2422
666;2.0031826999993427;2422
667;2.006052400000044;2422
668;2.008891199999198;2422
669;2.0120766999998523;2422
670;2.0148844999994253;2422
671;2.016980099999273;2422
672;2.020048699999279;2422
673;2.02314159999969;2422
674;2.0259277999994083;2422
675;2.0289202999992995;2422
676;2.031208799999149;2422
677;2.0338690999997198;2421
678;2.0370653999998467;2421
679;2.040061699999569;2421
680;2.043163999999706;2421
681;2.0460502999994787;2422
682;2.0489975999998933;2422
683;2.0522258999999394;2421
684;2.0553784999992786;2421
685;2.058285699999942;2421
686;2.0613104999993084;2422
687;2.0652294999999867;2422
688;2.0681445999998687;2422
689;2.0709068999994997;2422
690;2.0740259999993214;2422
691;2.076959899999565;2422
692;2.0798101000000315;2422
693;2.0818712000000232;2422
694;2.0839349999996557;2422
695;2.086961599999995;2423
696;2.089885200000026;2423
697;2.093019199999617;2423
698;2.095735799999602;2423
699;2.0989850999994815;2423
700;2.102225499999804;2423
701;2.105472799999916;2423
702;2.108377499999733;2423
703;2.111064400000032;2423
704;2.1141374999997424;2423
705;2.1169200999993336;2423
706;2.1198775999991994;2423
707;2.1218197999996846;2424
708;2.12410699999964;2424
709;2.1270002999999633;2424
710;2.129934999999932;2423
711;2.132937800000036;2424
712;2.1361450999993394;2424
713;2.139473700000053;2424
714;2.142343599999549;2424
715;2.145005299999866;2424
716;2.1479693999999654;2424
717;2.1498788999997487;2424
