;time;amplitude
0;0.003931399999601126;2434
1;0.007901899999524176;2433
2;0.011464100000011967;2433
3;0.01588179999998829;2433
4;0.01981939999950555;2433
5;0.02384780000011233;2432
6;0.02787480000006326;2432
7;0.03185190000021976;2432
8;0.035854599999765924;2432
9;0.039817699999730394;2431
10;0.043744300000071235;2431
11;0.04787349999969592;2431
12;0.05184209999970335;2431
13;0.05584739999994781;2431
14;0.05981659999997646;2431
15;0.06331119999958901;2430
16;0.06777080000028946;2430
17;0.07175959999949555;2429
18;0.0747694000001502;2429
19;0.0783581999994567;2429
20;0.08285809999961202;2429
21;0.08682179999959772;2429
22;0.09083709999958955;2429
23;0.09433499999977357;2428
24;0.09766409999974712;2428
25;0.1015625;2428
26;0.10572570000022097;2428
27;0.10969419999946695;2428
28;0.11371169999983977;2428
29;0.11771059999955469;2427
30;0.1217276999996102;2428
31;0.12559460000011313;2428
32;0.1296532999995179;2428
33;0.13371159999951487;2427
34;0.13771819999965373;2426
35;0.14121909999994386;2426
36;0.1452579999995578;2427
37;0.148662499999773;2427
38;0.15270869999949355;2426
39;0.15666710000004969;2427
40;0.16072729999996227;2426
41;0.16364849999990838;2426
42;0.16771840000001248;2426
43;0.17168800000035844;2426
44;0.17509880000034173;2426
45;0.17931820000012522;2425
46;0.18266680000033375;2425
47;0.186652000000322;2425
48;0.19068510000033712;2425
49;0.1947029000002658;2424
50;0.198455699999613;2424
51;0.20147429999997257;2423
52;0.20448109999961162;2423
53;0.20748660000026575;2423
54;0.21045760000015434;2423
55;0.21348380000017642;2423
56;0.21770099999957893;2423
57;0.2216984999995475;2422
58;0.2257112999996025;2422
59;0.22963619999973162;2421
60;0.23372159999962605;2421
61;0.23772569999982807;2420
62;0.241710499999499;2420
63;0.24507399999947665;2420
64;0.24810569999954168;2419
65;0.2516470999999001;2420
66;0.2557180000003427;2419
67;0.2598102000001745;2419
68;0.26366849999976694;2419
69;0.2676915000001827;2419
70;0.2717155999998795;2418
71;0.27572650000001886;2418
72;0.27811990000009246;2418
73;0.28168360000017856;2417
74;0.28571310000006633;2416
75;0.2897166000002471;2416
76;0.2936816999999792;2416
77;0.29664039999988745;2415
78;0.30069339999954536;2415
79;0.3046807999999146;2415
80;0.30864289999954053;2414
81;0.3124030999997558;2414
82;0.31670219999978144;2413
83;0.3206756999998106;2413
84;0.32469529999980296;2412
85;0.3282195000001593;2412
86;0.3316109999996115;2411
87;0.3356647000000521;2410
88;0.33965639999951236;2410
89;0.3436805000001186;2409
90;0.34662370000023657;2409
91;0.35068150000006426;2409
92;0.3541210000003048;2409
93;0.3576215000002776;2409
94;0.36142219999965164;2409
95;0.3646343000000343;2408
96;0.3686824999995224;2408
97;0.3726995999995779;2407
98;0.37628010000025824;2408
99;0.3796485000002576;2407
100;0.3836959999998726;2407
101;0.38732600000003004;2406
102;0.39062360000025365;2406
103;0.3947267000003194;2406
104;0.3986944999996922;2405
105;0.4026782999999341;2404
106;0.4066929999999047;2404
107;0.4107144999998127;2403
108;0.4136172999997143;2402
109;0.4174516000002768;2402
110;0.4216784000000189;2403
111;0.42569579999963025;2402
112;0.42962790000001405;2402
113;0.43365559999983816;2401
114;0.43769220000012865;2401
115;0.4416885000000548;2401
116;0.4452191000000312;2400
117;0.4481821999997919;2399
118;0.45163700000011886;2398
119;0.4556817000002411;2398
120;0.4597236999998131;2398
121;0.4636769999997341;2398
122;0.466133599999921;2398
123;0.4696449000002758;2398
124;0.4736894999996366;2398
125;0.4776737000001958;2398
126;0.481701200000316;2398
127;0.4856790000003457;2398
128;0.4896872999997868;2397
129;0.49368909999975585;2395
130;0.4961198000000877;2395
131;0.49966349999976956;2395
132;0.5036911999995937;2394
133;0.5076896999999008;2394
134;0.5112913000002663;2394
135;0.5146200999997745;2393
136;0.5187101999999868;2393
137;0.5226972000000387;2393
138;0.52661100000023;2393
139;0.529094399999849;2392
140;0.5326931999998124;2392
141;0.5366938999995909;2391
142;0.5406935000000885;2390
143;0.5447125000000597;2390
144;0.5486822000002576;2390
145;0.552713500000209;2389
146;0.5566714999995384;2389
147;0.5607129999998506;2388
148;0.5636244999996052;2388
149;0.5676401999999143;2388
150;0.5716414999997141;2388
151;0.5756761000002371;2388
152;0.5796491999999489;2387
153;0.5837126999995235;2387
154;0.5876698000001852;2387
155;0.5917154999997365;2387
156;0.5952547999995659;2387
157;0.5986311999995451;2386
158;0.6027075000001787;2386
159;0.6067064999997456;2385
160;0.610142900000028;2386
161;0.6133827000003294;2385
162;0.6164276999998037;2385
163;0.6193966000000728;2384
164;0.6224638000003324;2384
165;0.625249800000347;2384
166;0.6282523999998375;2384
167;0.631382499999745;2384
168;0.634411199999704;2384
169;0.6373751000000993;2384
170;0.640266899999915;2383
171;0.6432659000001877;2383
172;0.6464152999997168;2382
173;0.649398999999903;2382
174;0.6524096000002828;2382
175;0.6553508999995756;2382
176;0.6583994000002349;2381
177;0.6610715999995591;2382
178;0.6644143000003169;2382
179;0.6672919000002366;2382
180;0.6704016000003321;2382
181;0.6734164999998029;2381
182;0.6763935999997557;2382
183;0.6793969000000288;2382
184;0.6824005999997098;2381
185;0.6854057999998986;2381
186;0.6880290999997669;2381
187;0.6901934999996229;2381
188;0.6932900000001609;2381
189;0.6962512000000061;2380
190;0.6993794999998499;2381
191;0.7023768999997628;2381
192;0.7063773999998375;2381
193;0.7093955999998798;2380
194;0.7121047999999064;2380
195;0.7151252000003296;2380
196;0.7181259999997565;2380
197;0.7211203999995632;2380
198;0.7241274999996676;2379
199;0.7271110000001499;2379
200;0.7304002000000764;2379
201;0.7334030000001803;2379
202;0.736394399999881;2378
203;0.7393941000000268;2377
204;0.7423901000001933;2377
205;0.7452591000001121;2378
206;0.7483980999995765;2378
207;0.7513969000001453;2377
208;0.7543949999999313;2377
209;0.7573903000002247;2377
210;0.7603063999995356;2377
211;0.7633968000000095;2377
212;0.7663938999994571;2378
213;0.76939560000028;2378
214;0.7723831000002974;2377
215;0.7753938999994716;2377
216;0.778127499999755;2376
217;0.7813957999997001;2377
218;0.7843944999995074;2377
219;0.7874013999999079;2377
220;0.790405799999462;2377
221;0.793399700000009;2377
222;0.7963852000002589;2377
223;0.7993706999995993;2377
224;0.8023769999999786;2377
225;0.8053698000003351;2377
226;0.8081270000002405;2377
227;0.8110568000001876;2377
228;0.814371299999948;2376
229;0.8173712999996496;2376
230;0.8203763999999865;2376
231;0.8234756000001653;2376
232;0.8263766000000032;2376
233;0.8293668999995134;2376
234;0.8323609999997643;2375
235;0.8353746000002502;2375
236;0.8383680999995704;2375
237;0.8412388999995528;2375
238;0.8442822999995769;2375
239;0.8472584000001007;2375
240;0.8502855999995518;2375
241;0.853262800000266;2375
242;0.8563003999997818;2375
243;0.8592274000002362;2375
244;0.8622396000000663;2375
245;0.8652925999995205;2375
246;0.868245200000274;2375
247;0.8710934999999154;2375
248;0.8742935000000216;2375
249;0.8772447000001193;2375
250;0.8802789999999732;2375
251;0.8832635999997365;2375
252;0.8862671999995655;2375
253;0.8892691000000923;2376
254;0.8922826999996687;2376
255;0.8952496000001702;2376
256;0.8982810999996218;2376
257;0.9012628999998924;2376
258;0.9042596999997841;2376
259;0.9072847999996156;2375
260;0.9102544999996098;2375
261;0.9132687999999689;2375
262;0.9162968999999066;2375
263;0.9192901999995229;2375
264;0.9222879999997531;2375
265;0.9252900000001318;2375
266;0.9281183000002784;2375
267;0.9312638000001243;2375
268;0.9341071999997439;2374
269;0.9372739000000365;2374
270;0.940293699999529;2374
271;0.9432907000000341;2374
272;0.9462875999997777;2374
273;0.9491078999999445;2374
274;0.9522956000000704;2374
275;0.9552616000000853;2374
276;0.958287499999642;2374
277;0.9610960999998497;2374
278;0.9642352000000756;2374
279;0.9670968000000357;2374
280;0.9702650999997786;2374
281;0.9732309000000896;2373
282;0.9762969000003068;2374
283;0.9794056999999157;2374
284;0.9824055999997654;2374
285;0.9853719000002457;2374
286;0.9884076999996978;2374
287;0.9913728000001356;2374
288;0.9943585000000894;2374
289;0.9973737000000256;2374
290;1.000373199999558;2374
291;1.003372500000296;2374
292;1.0063727999995535;2374
293;1.0093672000002698;2375
294;1.0123667999996542;2375
295;1.0153721999995469;2375
296;1.018340999999964;2375
297;1.021364999999605;2374
298;1.0244056999999884;2374
299;1.0272671000002447;2374
300;1.030405200000132;2375
301;1.0333731999999145;2375
302;1.0363667999999961;2375
303;1.0393708999999944;2375
304;1.042640499999834;2374
305;1.045253899999807;2374
306;1.0484068999994633;2374
307;1.0513687000002392;2375
308;1.0543919000001551;2375
309;1.0573714000001928;2374
310;1.0610598000002938;2374
311;1.0642603999995117;2374
312;1.0672428999996555;2374
313;1.0702519999995275;2375
314;1.0742676999998366;2375
315;1.0782877999999982;2375
316;1.0815955999996731;2375
317;1.0856678999998621;2375
318;1.0896898000000874;2375
319;1.0936801999996533;2375
320;1.0966231000002153;2375
321;1.1006855999994514;2375
322;1.104565999999977;2375
323;1.107532899999569;2375
324;1.110447999999451;2375
325;1.1134013000000778;2375
326;1.1163197999994736;2375
327;1.1193506999998135;2375
328;1.1223843999996461;2375
329;1.1252630999997564;2375
330;1.1280993000000308;2375
331;1.1313719999998284;2376
332;1.1343736999997418;2376
333;1.137383399999635;2376
334;1.1403165000001536;2375
335;1.1433766000000105;2376
336;1.1463752999998178;2376
337;1.1493533000002571;2375
338;1.1523865999997724;2375
339;1.155351399999745;2375
340;1.1583694999999352;2375
341;1.1610804000001735;2376
342;1.164381599999615;2376
343;1.167370199999823;2376
344;1.170350899999903;2376
345;1.1733785999995234;2376
346;1.1763724000002185;2376
347;1.1793778999999631;2376
348;1.182378399999834;2376
349;1.185372500000085;2375
350;1.1880662000003213;2375
351;1.191106999999647;2375
352;1.194100200000321;2376
353;1.1971909000003507;2375
354;1.200414400000227;2375
355;1.2033825999997134;2375
356;1.2064115000002857;2375
357;1.2094172999995862;2375
358;1.2124046999997518;2375
359;1.2154122000001735;2375
360;1.2183825000001889;2374
361;1.2210802999998123;2375
362;1.2243804999998247;2375
363;1.227379299999484;2375
364;1.2301786999996693;2375
365;1.2331795000000056;2375
366;1.236178099999961;2375
367;1.239173099999789;2374
368;1.242176699999618;2374
369;1.2451185999998415;2375
370;1.2482213000002957;2375
371;1.2512268000000404;2374
372;1.254209699999592;2374
373;1.2571265999995376;2374
374;1.2600488999996742;2374
375;1.2633445999999822;2375
376;1.2663379999994504;2374
377;1.269354299999577;2374
378;1.2723527999996804;2375
379;1.2753869999996823;2375
380;1.278096899999582;2375
381;1.2813540999995894;2375
382;1.2843351999999868;2375
383;1.2873564000001352;2375
384;1.2904003000003286;2375
385;1.2933106000000407;2375
386;1.2963895000002594;2375
387;1.299398399999518;2375
388;1.302406599999813;2375
389;1.3054075000000012;2375
390;1.3084139000002324;2374
391;1.3111117999997077;2374
392;1.3143660999994609;2375
393;1.317394200000308;2374
394;1.320394800000031;2375
395;1.323406800000157;2375
396;1.3263940999995611;2375
397;1.3293973999998343;2375
398;1.3323981000003187;2375
399;1.3353988999997455;2374
400;1.3383998999997857;2375
401;1.3414019000001645;2375
402;1.3442426000001433;2375
403;1.3473957999995037;2375
404;1.35039659999984;2375
405;1.3534016000003248;2375
406;1.3560943000002226;2375
407;1.3594068000002153;2375
408;1.3623781999995117;2375
409;1.3653924000000188;2375
410;1.3684040999996796;2375
411;1.371385100000225;2375
412;1.3743980999997802;2375
413;1.3774221000003308;2375
414;1.3804025999997975;2375
415;1.383401899999626;2376
416;1.3863946999999825;2375
417;1.390258200000062;2376
418;1.3933913999999277;2375
419;1.3963771999997334;2375
420;1.3994030000003477;2375
421;1.402393999999731;2375
422;1.4054024999995818;2375
423;1.4083645000000615;2375
424;1.4110972999997102;2375
425;1.4144037999994907;2374
426;1.4174020000000382;2374
427;1.4204042999999729;2375
428;1.4234008000003087;2375
429;1.4261570999997275;2374
430;1.4293150000003152;2374
431;1.4322542999998404;2374
432;1.4352288999998564;2375
433;1.4383993999999802;2375
434;1.4413965000003373;2375
435;1.4442313999998078;2374
436;1.4473975000000792;2375
437;1.4503898000002664;2375
438;1.4534130000001824;2375
439;1.4564015999994808;2375
440;1.4594010999999227;2375
441;1.4624152999995204;2375
442;1.4654021999995166;2376
443;1.4683993999997256;2376
444;1.471409799999492;2376
445;1.4743995999997423;2376
446;1.477393099999972;2376
447;1.4804047999996328;2376
448;1.483402500000011;2376
449;1.4863939999995637;2376
450;1.4893950999994559;2375
451;1.4923970999998346;2375
452;1.4953992000000653;2375
453;1.4982554999996864;2376
454;1.5014030000002094;2376
455;1.504399899999953;2376
456;1.5074013000003106;2376
457;1.5104043999999703;2376
458;1.5131142000000182;2376
459;1.5163950999994995;2377
460;1.5194007999998576;2376
461;1.5224043999996866;2377
462;1.5253966999998738;2376
463;1.5281170999996903;2377
464;1.5311719999999696;2377
465;1.534766099999615;2377
466;1.5387602000000697;2377
467;1.5427555999995093;2377
468;1.5465268999996624;2376
469;1.5496233000003485;2377
470;1.5526199999994788;2377
471;1.5556311999998798;2377
472;1.5586281999994753;2377
473;1.561145900000156;2377
474;1.5644040999995923;2376
475;1.567196299999523;2377
476;1.5703495999996449;2376
477;1.5735611999998582;2376
478;1.5776530000002822;2375
479;1.5806336999994528;2375
480;1.5847052999997686;2376
481;1.5886992999994618;2375
482;1.5926896000000852;2375
483;1.595365700000002;2374
484;1.599713800000245;2374
485;1.6036911999999575;2373
486;1.607722400000057;2373
487;1.611226799999713;2373
488;1.614644600000247;2373
489;1.6187153999999282;2373
490;1.622696100000212;2373
491;1.626719900000353;2373
492;1.6296559000002162;2373
493;1.6337205999998332;2373
494;1.637701499999821;2373
495;1.6412463999995452;2374
496;1.6444390999995449;2374
497;1.647638299999926;2374
498;1.651688899999499;2374
499;1.655698200000188;2374
500;1.6597114999995028;2374
501;1.6624433999995745;2375
502;1.6654702999994697;2375
503;1.6684497999995074;2375
504;1.6714505999998437;2375
505;1.674443599999904;2375
506;1.6775320999995529;2376
507;1.6804196000002776;2375
508;1.6834499999995387;2375
509;1.686439799999789;2376
510;1.6894485000002533;2375
511;1.6934361000003264;2375
512;1.6964004000001296;2375
513;1.699402100000043;2375
514;1.702399400000104;2374
515;1.7054467999996632;2374
516;1.7084317999997438;2374
517;1.7110763000000588;2374
518;1.7144219000001613;2374
519;1.7174343999995472;2374
520;1.721136899999692;2374
521;1.7242027000002054;2373
522;1.727328199999647;2373
523;1.7308696000000054;2373
524;1.7350108999999065;2373
525;1.7387823999997636;2373
526;1.742696899999828;2374
527;1.7467076000002635;2374
528;1.7505896000002394;2374
529;1.753210400000171;2374
530;1.756649899999502;2374
531;1.7604877000003398;2374
532;1.7633918000001358;2374
533;1.7665508999998565;2374
534;1.769462399999611;2374
535;1.7724608999997145;2374
536;1.7754680999996708;2374
537;1.7782501000001503;2374
538;1.7813144000001557;2375
539;1.7842515000002095;2375
540;1.7872528999996575;2375
541;1.7901991999997335;2375
542;1.7933199999997669;2375
543;1.7963136999997005;2374
544;1.7994479999997566;2375
545;1.8024501999998392;2375
546;1.8054561999997532;2374
547;1.8084674000001542;2375
548;1.8110647000003155;2375
549;1.8131981999995332;2375
550;1.8162081000000398;2375
551;1.8198566999999457;2374
552;1.8236557999998695;2374
553;1.8275865999994494;2374
554;1.8306824999999662;2374
555;1.834700100000191;2375
556;1.838696699999673;2375
557;1.8427011000003404;2375
558;1.8467076999995697;2375
559;1.8506068999995477;2375
560;1.8546869000001607;2375
561;1.8586894999998549;2375
562;1.8626917999999932;2375
563;1.8667030999995404;2375
564;1.870703599999615;2375
565;1.8744133999998667;2375
566;1.8782820999995238;2375
567;1.8814831999998205;2375
568;1.884476899999754;2375
569;1.8884754999999132;2375
570;1.8913572999999815;2375
571;1.8942690000003495;2375
572;1.8974938999999722;2375
573;1.9003544999995938;2375
574;1.9034878000002209;2374
575;1.9075474000001122;2374
576;1.9105635999994774;2374
577;1.9134064999998373;2375
578;1.916403999999602;2374
579;1.919406699999854;2374
580;1.9224377999998978;2374
581;1.9254430000000866;2374
582;1.9281097000002774;2374
583;1.931254600000102;2374
584;1.9345907999995688;2374
585;1.9385830000001079;2374
586;1.94268430000011;2375
587;1.9470381999999518;2375
588;1.9519283999998152;2374
589;1.9560215999999855;2375
590;1.9614334999996572;2375
591;1.9660032000001593;2375
592;1.97106470000017;2375
593;1.9748984999996537;2376
594;1.9784156999994593;2376
595;1.983038100000158;2376
596;1.9866542999998273;2376
597;1.990774799999599;2376
598;1.9944679000000178;2376
599;1.9988635999998223;2376
600;2.0028322999996817;2375
601;2.0064493999998376;2375
602;2.010605599999508;2375
603;2.013668599999619;2376
604;2.0174209999995583;2375
605;2.0205347000000984;2376
606;2.023408600000039;2376
607;2.026531700000305;2376
608;2.0295415999999022;2376
609;2.0323975000001155;2375
610;2.0365387000001647;2375
611;2.0395527999999103;2376
612;2.043536299999687;2376
613;2.046542699999918;2376
614;2.0495922999998584;2376
615;2.052541299999575;2377
616;2.055554200000188;2376
617;2.058523900000182;2376
618;2.062502900000254;2376
619;2.066890600000079;2376
620;2.070838300000105;2376
621;2.0748991000000387;2376
622;2.078408800000034;2377
623;2.0818184999998266;2376
624;2.0858342999999877;2376
625;2.0894624000002295;2376
626;2.0923855999999432;2376
627;2.095388200000343;2375
628;2.0986631999994643;2375
629;2.102917399999569;2376
630;2.106758500000069;2376
631;2.110901600000034;2376
632;2.1148474000001443;2376
633;2.118836300000112;2375
634;2.122591999999713;2375
635;2.125218899999709;2375
636;2.1283654999997452;2375
637;2.131663799999842;2375
638;2.135912699999608;2375
639;2.1399214000002758;2375
640;2.1439308999997593;2375
641;2.147851400000036;2376
642;2.1518605000001116;2376
643;2.1558954000001904;2376
644;2.1593660999997155;2376
645;2.1627716000002692;2376
646;2.166931400000067;2376
647;2.170654300000024;2376
648;2.174358199999915;2376
649;2.177400999999918;2376
650;2.1803290999996534;2376
651;2.1833426000002873;2376
652;2.186891399999695;2376
653;2.190879699999641;2376
654;2.194283799999539;2376
655;2.1978165000000445;2376
656;2.201862300000357;2376
657;2.2064338999998654;2376
658;2.2091529999997874;2376
659;2.211179799999627;2376
660;2.214640600000166;2376
661;2.2186947999998665;2376
662;2.221624300000258;2375
663;2.225692400000298;2375
664;2.22825660000035;2375
665;2.231645799999569;2375
666;2.2345558999995774;2375
667;2.237546399999701;2374
668;2.2417029999996885;2375
669;2.244242199999462;2374
670;2.2476301999995485;2375
671;2.25058910000007;2374
672;2.253088299999945;2374
673;2.2562760999999227;2374
674;2.259663400000136;2374
675;2.2626179999997476;2374
676;2.2669538000000102;2374
677;2.2706310000003214;2374
678;2.27469149999979;2374
679;2.278246500000023;2375
680;2.281630700000278;2375
681;2.28419649999978;2375
682;2.2876839000000473;2375
683;2.2905604999996285;2375
684;2.2943536000002496;2375
685;2.2976283999996667;2375
686;2.30053130000033;2375
687;2.3035039999995206;2374
688;2.306507899999815;2375
689;2.3095064999997703;2375
690;2.312535299999581;2375
691;2.3166042000002562;2374
692;2.320559900000262;2375
693;2.323404699999628;2375
694;2.3265903999999864;2375
695;2.329574800000046;2375
696;2.3325604000001476;2375
697;2.3355032999998;2374
698;2.338519400000223;2374
699;2.3427083999995375;2374
700;2.346682200000032;2375
701;2.3506165999997393;2374
702;2.35484439999982;2374
703;2.3588620000000446;2374
704;2.362341099999867;2374
705;2.365561099999468;2375
706;2.3698284000001877;2375
707;2.373854599999504;2375
708;2.377255200000036;2375
709;2.3807613999997557;2375
710;2.384858499999609;2375
711;2.388885399999708;2375
712;2.392448200000217;2375
713;2.3968770999999833;2376
714;2.400581699999748;2375
715;2.403687600000012;2375
716;2.407811400000355;2375
717;2.4113703000002715;2375
718;2.414708000000246;2375
719;2.418763599999693;2375
720;2.422736900000018;2375
