;time;amplitude
0;0.0032535999998799525;2449
1;0.007489900000109628;2448
2;0.011561499999515945;2447
3;0.015601299999616458;2447
4;0.018941000000268104;2446
5;0.022251299999879848;2445
6;0.025231300000086776;2445
7;0.0279605999994601;2445
8;0.03123890000006213;2444
9;0.034237199999552104;2444
10;0.03712470000027679;2444
11;0.040254100000311155;2443
12;0.04292809999969904;2443
13;0.045950400000037916;2443
14;0.04889569999977539;2442
15;0.051860300000043935;2442
16;0.05498079999961192;2441
17;0.05797009999969305;2440
18;0.06098229999952309;2440
19;0.06398280000030354;2439
20;0.06698150000011083;2438
21;0.07004349999988335;2438
22;0.07301889999962441;2438
23;0.0757856999998694;2438
24;0.07884269999976823;2437
25;0.08176000000003114;2436
26;0.08480940000026749;2436
27;0.0878034999996089;2435
28;0.09080739999990328;2435
29;0.09372720000010304;2434
30;0.09676829999989423;2434
31;0.0997600999999122;2433
32;0.10279280000031576;2432
33;0.10582090000025346;2431
34;0.10884160000023257;2431
35;0.11186540000016976;2430
36;0.11485459999948944;2430
37;0.11771909999970376;2430
38;0.12086670000007871;2429
39;0.12384759999986272;2429
40;0.12665029999971011;2428
41;0.12973460000011983;2428
42;0.13281430000006367;2428
43;0.13581929999963904;2428
44;0.13881450000008044;2427
45;0.14187930000025517;2426
46;0.14480120000007446;2425
47;0.14779879999969125;2425
48;0.150938199999473;2424
49;0.15525629999956436;2424
50;0.1591840000000957;2423
51;0.1618343999998615;2423
52;0.16507459999957064;2422
53;0.16772219999984372;2421
54;0.171045399999457;2421
55;0.17404939999960334;2420
56;0.178174300000137;2420
57;0.18106919999991078;2419
58;0.18378579999989597;2418
59;0.1868183999995381;2418
60;0.1900244999997085;2417
61;0.1927436999994825;2416
62;0.19488499999988562;2416
63;0.1981046000000788;2415
64;0.2011330999994243;2415
65;0.20385910000004515;2414
66;0.2070757000001322;2413
67;0.2097907999996096;2413
68;0.21285170000010112;2412
69;0.21598939999967115;2412
70;0.21900039999945875;2412
71;0.2220396000002438;2411
72;0.22483610000017507;2411
73;0.22791719999986526;2410
74;0.23086739999962447;2409
75;0.23384129999976722;2408
76;0.23683549999987008;2408
77;0.2398563999995531;2408
78;0.24265509999986534;2407
79;0.245800099999542;2407
80;0.24890750000031403;2406
81;0.2520150000000285;2405
82;0.2553563999999824;2404
83;0.2583428999996613;2403
84;0.26122320000013133;2403
85;0.26420280000002094;2403
86;0.2672317999995357;2402
87;0.27002489999995305;2401
88;0.27305100000012317;2401
89;0.275746700000127;2400
90;0.27900010000030306;2400
91;0.28191679999963526;2399
92;0.28500309999981255;2399
93;0.28812939999988885;2398
94;0.29237469999952737;2397
95;0.2962962999999945;2397
96;0.3002872999995816;2396
97;0.30591480000020965;2395
98;0.3103430999999546;2395
99;0.31483860000025743;2394
100;0.3197848999998314;2394
101;0.32426889999987907;2393
102;0.32861919999959355;2393
103;0.33314419999987877;2392
104;0.3376914000000397;2391
105;0.3427284999997937;2391
106;0.34764069999982894;2390
107;0.3525015999994139;2389
108;0.3562683999998626;2388
109;0.3598485000002256;2388
110;0.36411729999963427;2387
111;0.3672056999994311;2386
112;0.3712820999999167;2386
113;0.3753543000002537;2385
114;0.37809589999960735;2384
115;0.3811649999997826;2384
116;0.3841685999996116;2383
117;0.38827219999984663;2383
118;0.392274499999985;2382
119;0.39516230000026553;2382
120;0.39817349999975704;2381
121;0.40224919999945996;2380
122;0.406269500000235;2380
123;0.40989669999999023;2379
124;0.4131881000002977;2379
125;0.4161287999995693;2378
126;0.4191547000000355;2378
127;0.422225499999513;2378
128;0.42600080000011076;2377
129;0.4291768000002776;2377
130;0.43318529999942257;2376
131;0.43692079999982525;2376
132;0.44020480000017415;2375
133;0.44415310000022146;2375
134;0.4471470999997109;2374
135;0.45016320000013366;2374
136;0.4529280999995535;2374
137;0.4571813000002294;2373
138;0.46120969999992667;2372
139;0.46551889999955165;2372
140;0.4694149999995716;2371
141;0.4734343000000081;2371
142;0.4771873999998206;2370
143;0.4803664999999455;2370
144;0.4844206999996459;2369
145;0.4884414999996807;2369
146;0.4925057000000379;2368
147;0.4963361000000077;2368
148;0.499291600000106;2367
149;0.50339939999958;2367
150;0.5073443999999654;2367
151;0.5113657000001695;2367
152;0.5148565999998027;2366
153;0.5178385999997772;2366
154;0.5213653000000704;2366
155;0.5254339000002801;2365
156;0.52829279999969;2365
157;0.5319282999998904;2365
158;0.5348066999995353;2365
159;0.5380173000003197;2364
160;0.5413652999995975;2364
161;0.5439658999994208;2364
162;0.5481248999994932;2364
163;0.5512937000003149;2364
164;0.5554028999995353;2364
165;0.5590486000000965;2363
166;0.5621187999995527;2362
167;0.5651092999996763;2362
168;0.5682457000002614;2362
169;0.5721776000000318;2361
170;0.5758565999994971;2361
171;0.5791872999998304;2361
172;0.5832902000001923;2360
173;0.5869999999995343;2360
174;0.5909616999997525;2360
175;0.5943049999996219;2359
176;0.5978497999994943;2359
177;0.6008015999996132;2359
178;0.603826300000037;2359
179;0.6073066999997536;2359
180;0.6109233999995922;2359
181;0.6141019999995478;2359
182;0.6183996999998271;2358
183;0.6223370999996405;2358
184;0.6259130999997069;2358
185;0.6292981999995391;2358
186;0.6334000999995624;2359
187;0.6373845999996774;2359
188;0.6413787000001321;2359
189;0.6438523999995596;2359
190;0.6473164999997607;2359
191;0.651383800000076;2359
192;0.6553604000000632;2359
193;0.6591222999995807;2358
194;0.6621600999997099;2358
195;0.6653282999996009;2358
196;0.6693483999997625;2358
197;0.6733125999999174;2357
198;0.6758067999999184;2357
199;0.6793222999995123;2357
200;0.6823011999995288;2357
201;0.686362200000076;2357
202;0.6903806000000259;2356
203;0.6943325000002005;2356
204;0.6983626000001095;2356
205;0.7023810000000594;2356
206;0.7063772999999856;2355
207;0.7099032999994961;2355
208;0.7128781000001254;2355
209;0.7157761999997092;2355
210;0.7177255999995396;2355
211;0.7197346000002653;2356
212;0.7230392000001302;2355
213;0.7258234000000812;2355
214;0.7289113999995607;2356
215;0.7322400000002744;2355
216;0.7350631999997859;2355
217;0.7377801000002364;2355
218;0.7406737000001158;2355
219;0.742750999999771;2355
220;0.7446669000000838;2355
221;0.7466938999996273;2355
222;0.7486779999999271;2356
223;0.7516854999994393;2356
224;0.75368299999991;2355
225;0.7556605999998283;2355
226;0.7576587000003201;2355
227;0.7596115999995163;2355
228;0.7627136999999493;2355
229;0.7647215999995751;2355
230;0.7666469999994661;2355
231;0.7686386999994284;2355
232;0.770707399999992;2355
233;0.7725666999995155;2355
234;0.7746028999999908;2354
235;0.7766866000001755;2354
236;0.7798031000002084;2354
237;0.7817408000000796;2354
238;0.7835947000003216;2354
239;0.7855425999996442;2354
240;0.787589399999888;2354
241;0.7895551000001433;2354
242;0.7915468999999575;2354
243;0.7936147000000346;2354
244;0.7956644999994751;2354
245;0.7975776000002952;2354
246;0.7996284999999261;2354
247;0.8017166999998153;2353
248;0.8036913999994795;2354
249;0.8057054999999309;2354
250;0.8076714999997421;2354
251;0.8097066999998788;2354
252;0.8127062000003207;2354
253;0.814650299999812;2354
254;0.8166403999994145;2354
255;0.8186330999997153;2354
256;0.8205717999999251;2354
257;0.8226220999995348;2354
258;0.824667199999567;2355
259;0.826702600000317;2355
260;0.8285828999996738;2355
261;0.8305560999997397;2355
262;0.8325976999994964;2355
263;0.8345570999999836;2355
264;0.836648200000127;2355
265;0.8385619999999108;2354
266;0.8406347999998616;2355
267;0.8426393999998254;2355
268;0.8456954000002952;2356
269;0.8476558000002115;2356
270;0.8495996999999988;2356
271;0.8516401999995651;2356
272;0.8536514999996143;2356
273;0.8556391000001895;2355
274;0.8576622999999017;2355
275;0.8596662999998443;2355
276;0.8627188999998907;2355
277;0.8647203999998965;2355
278;0.8666923000000679;2355
279;0.868658599999435;2354
280;0.8706818999999086;2355
281;0.8726846999998088;2355
282;0.8745539999999892;2355
283;0.8766370000003008;2355
284;0.8797048999995241;2355
285;0.8816710999999486;2355
286;0.883736300000237;2356
287;0.8856881000001522;2355
288;0.8877090999994834;2355
289;0.88967859999957;2355
290;0.89170329999979;2355
291;0.8938391000001502;2355
292;0.8966966999996657;2355
293;0.8997276000000056;2355
294;0.9016816000003018;2355
295;0.9036817999995037;2355
296;0.9055375999996613;2355
297;0.9076689000003171;2355
298;0.9096211999994921;2355
299;0.9118088999994143;2355
300;0.9147118000000773;2355
301;0.916682199999741;2355
302;0.9186658999997235;2355
303;0.920666799999708;2355
304;0.9226865000000544;2354
305;0.9246748999994452;2355
306;0.9266066999998657;2355
307;0.9297363999994559;2355
308;0.9316598999994312;2355
309;0.9335948999996617;2355
310;0.9356158000000505;2355
311;0.9376110000002882;2355
312;0.9396249000001262;2355
313;0.941638299999795;2356
314;0.9436778999997841;2355
315;0.9467641000001095;2355
316;0.9487183000001096;2355
317;0.9507125999998607;2355
318;0.9526896999996097;2355
319;0.9545652999995582;2355
320;0.9565400000001318;2355
321;0.9586153000000195;2355
322;0.9608946999996988;2355
323;0.9636124999997264;2355
324;0.9655795999997281;2355
325;0.9676909999998315;2355
326;0.9696616999999605;2355
327;0.9716902999998638;2355
328;0.9736958000003142;2356
329;0.9756359000002703;2356
330;0.9788201000001209;2355
331;0.9816745999996783;2355
332;0.9835868999998638;2356
333;0.985652299999856;2356
334;0.9876960000001418;2356
335;0.9897512999996252;2356
336;0.991686700000173;2356
337;0.994952099999864;2356
338;0.9977168999994319;2356
339;0.9995644000000539;2356
340;1.002295100000083;2356
341;1.0047118000002229;2356
342;1.0066221999995832;2356
343;1.0086083999995026;2355
344;1.0106047999997827;2355
345;1.0138775999994323;2355
346;1.0167160999999396;2355
347;1.0186627000002773;2355
348;1.0216965999998138;2355
349;1.023620299999493;2355
350;1.0259768999994776;2356
351;1.0300256000000445;2355
352;1.0325639000002411;2355
353;1.0347377999996752;2355
354;1.0366379999995843;2355
355;1.038622299999588;2355
356;1.040561599999819;2355
357;1.0425803999996788;2355
358;1.0449300000000221;2355
359;1.0476263999998991;2355
360;1.0495927000001757;2355
361;1.0517037999998138;2355
362;1.0537414000000354;2355
363;1.0556179999994129;2355
364;1.0576273999995465;2355
365;1.0596659000002546;2355
366;1.0627394000002823;2355
367;1.0646943000001556;2355
368;1.066589699999895;2355
369;1.0687047000001257;2355
370;1.0706577000000834;2355
371;1.0726721000000907;2355
372;1.0746704000002865;2355
373;1.0778991999995924;2355
374;1.0808146999997916;2355
375;1.0838232999994943;2355
376;1.0867137999994156;2355
377;1.0886574999994991;2355
378;1.0905648999996629;2355
379;1.0926841999998942;2355
380;1.095800899999631;2355
381;1.0975480999995852;2355
382;1.0996589999995194;2355
383;1.1015835999996852;2355
384;1.103621000000203;2355
385;1.1056515000000218;2355
386;1.1076105000001917;2355
387;1.109594599999582;2355
388;1.1128539999999703;2355
389;1.1157610999998724;2355
390;1.1176823999994667;2355
391;1.1207083999997849;2355
392;1.1226833999999144;2355
393;1.124685199999476;2355
394;1.1266774999994595;2355
395;1.1287462000000232;2356
396;1.1317333999995753;2355
397;1.1336879000000408;2355
398;1.135696999999709;2355
399;1.1375637999999526;2355
400;1.1397310000002108;2355
401;1.1417374000002383;2355
402;1.145119199999499;2355
403;1.1477402999998958;2355
404;1.1497167999996236;2355
405;1.151711599999544;2355
406;1.1546932000001107;2355
407;1.156694499999503;2356
408;1.1585661999997683;2355
409;1.1606864999994286;2355
410;1.1639237999997931;2355
411;1.1666651999994428;2355
412;1.1686595000001034;2355
413;1.1707008000003043;2355
414;1.1726931000002878;2355
415;1.1746972000000824;2355
416;1.1766605000002528;2355
417;1.1796868000001268;2355
418;1.1816455999996833;2355
419;1.1836278999999195;2355
420;1.1857135000000198;2355
421;1.1888198999995438;2355
422;1.1921464999995806;2354
423;1.1951551000001928;2354
424;1.197744899999634;2354
425;1.200115800000276;2354
426;1.2029474000000846;2354
427;1.205715500000224;2354
428;1.2087212999995245;2354
429;1.210832599999776;2354
430;1.2138205000001108;2354
431;1.217009699999835;2355
432;1.2199964000001273;2355
433;1.223701699999765;2355
434;1.2256152999998449;2355
435;1.227820199999769;2355
436;1.2308809999994992;2355
437;1.2337421000001996;2355
438;1.2368415999999343;2355
439;1.239903300000151;2355
440;1.242677399999593;2355
441;1.2458832000002076;2354
442;1.248885699999846;2355
443;1.2518903000000137;2354
444;1.2548734000001787;2354
445;1.2576683999996021;2354
446;1.259982200000195;2354
447;1.2626431999997294;2354
448;1.26472719999947;2354
449;1.2665822999997545;2354
450;1.2687223000002632;2354
451;1.270670599999903;2354
452;1.2726204000000507;2354
453;1.2747238000001744;2354
454;1.2766581999994742;2354
455;1.279768100000183;2354
456;1.281590900000083;2354
457;1.283644699999968;2354
458;1.285650199999509;2354
459;1.287666999999601;2354
460;1.2896934000000329;2354
461;1.2916557999997167;2354
462;1.2939071999999214;2354
463;1.296636899999612;2354
464;1.298652200000106;2355
465;1.300580699999955;2355
466;1.3025808000002144;2354
467;1.3047191999994538;2354
468;1.306613799999468;2354
469;1.3109880000001795;2354
470;1.313617499999964;2354
471;1.3155924000002415;2355
472;1.3175518999996711;2355
473;1.319749999999658;2355
474;1.3228196000000025;2354
475;1.3256246000000829;2355
476;1.3276417999995829;2355
477;1.3296430999998847;2355
478;1.3316985999999815;2355
479;1.3337010999994163;2355
480;1.3380288999996992;2355
481;1.340601400000196;2355
482;1.3426391000002695;2355
483;1.34598029999961;2356
484;1.3487367999996422;2356
485;1.3505715999999666;2356
486;1.3525816999999734;2356
487;1.35629229999995;2356
488;1.3620620000001509;2356
489;1.3647406000000046;2356
490;1.3665761000002021;2356
491;1.3685708000002705;2356
492;1.3706253999998808;2356
493;1.3726915999995981;2356
494;1.3746412999998938;2356
495;1.376666999999543;2356
496;1.3801275999994687;2356
497;1.382855699999709;2356
498;1.3857916999995723;2356
499;1.3886567999998078;2356
500;1.3905872999994244;2356
501;1.392700700000205;2356
502;1.3957199999995282;2357
503;1.3976388999999472;2357
504;1.3996821000000637;2357
505;1.4016783999995823;2356
506;1.403642199999922;2356
507;1.4056314999997994;2356
508;1.4076141999994434;2357
509;1.4095872999996573;2357
510;1.4126307999995333;2357
511;1.4145907000001898;2356
512;1.4167006999996374;2356
513;1.4185967000003075;2356
514;1.4206913999996686;2356
515;1.4227216999997836;2356
516;1.424602799999775;2356
517;1.4270455999994738;2356
518;1.4302926000000298;2356
519;1.4328708000002734;2356
520;1.4356294999997772;2356
521;1.4376444999998057;2356
522;1.4396465999998327;2356
523;1.4416652999998405;2356
524;1.4438559999998688;2356
525;1.447635900000023;2356
526;1.4495842999995148;2356
527;1.4518840999999156;2356
528;1.454631800000243;2356
529;1.4628642999996373;2356
530;1.4656346000001577;2356
531;1.467769199999566;2356
532;1.469706099999712;2356
533;1.471739699999489;2356
534;1.4735915000001114;2356
535;1.4771263000002364;2356
536;1.48347399999966;2356
537;1.4863359999999375;2356
538;1.4886016000000382;2356
539;1.4919055999998818;2357
540;1.4951657000001433;2357
541;1.4977125999994314;2357
542;1.4996197999998913;2357
543;1.5016451000001325;2357
544;1.5036436999998841;2357
545;1.5057353000001967;2357
546;1.5076632000000245;2357
547;1.5096799000002648;2357
548;1.5129950000000463;2356
549;1.5157551000002059;2357
550;1.5177230999997846;2357
551;1.5197097999998732;2357
552;1.5226929000000382;2357
553;1.5246318999998039;2357
554;1.5268891999994594;2357
555;1.5297982000001866;2357
556;1.5317477999997209;2357
557;1.5336228999995;2357
558;1.5356896000002962;2356
559;1.537646699999641;2356
560;1.5396726999997554;2356
561;1.5415992999996888;2357
562;1.5439703000001828;2357
563;1.5467425999995612;2357
564;1.5486911999996664;2357
565;1.5505648999996993;2357
566;1.552668199999971;2357
567;1.5546922000003178;2357
568;1.556670199999644;2357
569;1.5585546000002068;2357
570;1.5612248999996154;2357
571;1.5637139000000388;2357
572;1.5656977999997252;2356
573;1.567622499999743;2357
574;1.5696718999997756;2357
575;1.5716841000003114;2357
576;1.5736747999999352;2357
577;1.5756083999995099;2357
578;1.5787811000000147;2357
579;1.581742800000029;2357
580;1.5837112999997771;2357
581;1.5856883999995262;2357
582;1.58754239999962;2357
583;1.5896012000002884;2357
584;1.5918399000001955;2357
585;1.5949720999997226;2357
586;1.5977045999998154;2357
587;1.5996159999995143;2357
588;1.601625299999796;2357
589;1.6036318999995274;2357
590;1.6057023000003028;2357
591;1.607702899999822;2357
592;1.609892899999977;2357
593;1.612722799999574;2357
594;1.6162144999998418;2357
595;1.6188592999997127;2357
596;1.6216736999995192;2357
597;1.6237033999996129;2357
598;1.6256209000002855;2357
599;1.6283814999997048;2357
600;1.6306956999997055;2358
601;1.6326607000000877;2358
602;1.634570100000019;2358
603;1.6366871000000174;2358
604;1.6386353999996572;2358
605;1.6406784000000698;2358
606;1.6437980000000607;2358
607;1.64669479999975;2358
608;1.6496220999997604;2358
609;1.6516247999998086;2358
610;1.6537272999994457;2358
611;1.655587100000048;2358
612;1.657745700000305;2358
613;1.6596554999996442;2358
614;1.6631169000002046;2358
615;1.6656456999999136;2358
616;1.6676085999997667;2359
617;1.669697499999529;2359
618;1.6717298000003211;2358
619;1.673758199999611;2358
620;1.6767571999998836;2358
621;1.679787099999885;2358
622;1.6817306000002645;2358
623;1.6836155999999391;2358
624;1.6857128000001467;2358
625;1.6877489999997124;2358
626;1.6906957999999577;2358
627;1.6927235000002838;2358
628;1.6947633999998288;2358
629;1.6977436999995916;2358
630;1.6996492999996917;2358
631;1.7016445999997813;2358
632;1.7037055000000692;2358
633;1.7067753999999695;2358
634;1.7117551000001185;2359
635;1.7146366999995735;2359
636;1.7177229999997508;2359
637;1.7197045000002618;2359
638;1.7218353999996907;2359
639;1.7245676000002277;2360
640;1.7269060999997237;2360
641;1.7300323999998;2361
642;1.7327158999996755;2361
643;1.7357696999997643;2361
644;1.7376777999998012;2361
645;1.7396265999996103;2361
646;1.7415931999994427;2361
647;1.7438707999999679;2362
648;1.7468426999994335;2362
649;1.749710999999479;2362
650;1.751703400000224;2362
651;1.7536533000002237;2362
652;1.7557212000001527;2362
653;1.75766990000011;2362
654;1.7596969999995054;2362
655;1.7628414000000703;2362
656;1.7656969999998182;2362
657;1.7676924999996118;2363
658;1.770722499999465;2363
659;1.7726882999995723;2363
660;1.7748067000002266;2363
661;1.7779097000002366;2363
662;1.7807167999999365;2363
663;1.7827643000000535;2363
664;1.7857131000000663;2363
665;1.7877392999998847;2364
666;1.7897419999999329;2364
667;1.7927620999998908;2363
668;1.795788100000209;2363
669;1.7977223999996568;2363
670;1.7997290000002977;2363
671;1.8016998000002786;2363
672;1.80476759999965;2363
673;1.8076309999996738;2364
674;1.8117692999994688;2363
675;1.8136334000000716;2364
676;1.8156326999996963;2364
677;1.8176754999994955;2364
678;1.8196318999998766;2364
679;1.8216105000001335;2364
680;1.8236866999995982;2364
681;1.8256592999996428;2365
682;1.8292480999998588;2365
683;1.8317172999995819;2365
684;1.8348645999994915;2366
685;1.837667099999635;2365
686;1.839611700000205;2365
687;1.8416381999995792;2365
688;1.844304799999918;2365
689;1.8467407999996794;2365
690;1.848747000000003;2365
691;1.8506533999998283;2366
692;1.8537206999999398;2366
693;1.8556680000001506;2366
694;1.8577262999997401;2366
695;1.8597411999999167;2366
696;1.8626752000000124;2366
697;1.864716099999896;2367
698;1.8667120999998588;2367
699;1.8697200999995403;2368
700;1.8716936000000715;2367
701;1.8736908000000767;2368
702;1.8769750000001295;2367
703;1.879735200000141;2368
704;1.8817140999999538;2368
705;1.883709099999578;2368
706;1.885741600000074;2368
707;1.887613599999895;2368
708;1.889612799999668;2368
709;1.8916065000003073;2368
710;1.8937917000002926;2369
711;1.896766199999547;2369
712;1.8997068999997282;2369
713;1.902721599999495;2369
714;1.9046269000000393;2369
715;1.9066033999997671;2369
716;1.9086239999996906;2370
717;1.9107987999996112;2370
