;time;amplitude
0;0.004710199999863107;2375
1;0.01112109999940003;2376
2;0.016096199999992677;2376
3;0.020489800000177638;2376
4;0.026023299999906158;2376
5;0.030955700000049546;2376
6;0.036009399999784364;2376
7;0.04051699999945413;2376
8;0.044885299999805284;2376
9;0.04993419999937032;2376
10;0.05455530000017461;2376
11;0.058552899999995134;2376
12;0.06255259999943519;2377
13;0.06679999999960273;2377
14;0.07176720000006753;2377
15;0.07677369999964867;2377
16;0.08187329999964277;2376
17;0.08627759999944828;2377
18;0.09083370000007562;2377
19;0.0958848999998736;2376
20;0.10088579999955982;2377
21;0.10481679999975313;2376
22;0.10986299999967741;2376
23;0.11429929999940214;2376
24;0.11888829999952577;2376
25;0.12282099999993079;2376
26;0.1278682000001936;2376
27;0.13286069999958272;2376
28;0.13733649999994668;2376
29;0.14280849999977363;2376
30;0.14729199999965203;2376
31;0.1515401999995447;2376
32;0.15439369999967312;2376
33;0.15842429999975138;2376
34;0.16241689999969822;2376
35;0.16639669999949547;2376
36;0.1703711000000112;2376
37;0.1741532999994888;2376
38;0.1778401000001395;2375
39;0.18145909999930154;2375
40;0.18540249999932712;2376
41;0.18838169999980892;2375
42;0.19234030000006896;2376
43;0.19534229999953823;2376
44;0.19937469999968016;2375
45;0.20330329999978858;2375
46;0.20737569999982952;2375
47;0.21130730000004405;2375
48;0.21515459999955056;2375
49;0.2180131999994046;2375
50;0.22080109999933484;2375
51;0.22326799999973446;2374
52;0.22730779999983497;2374
53;0.23130260000016278;2374
54;0.23532199999954173;2374
55;0.23814969999966706;2374
56;0.24115989999972953;2374
57;0.24417459999949642;2374
58;0.24719349999941187;2375
59;0.2501784999994925;2375
60;0.25391599999966274;2375
61;0.25733869999930903;2375
62;0.2613517999998294;2375
63;0.2653818999997384;2375
64;0.2688752999993085;2375
65;0.2723164999997607;2376
66;0.2763822999995682;2375
67;0.28032840000014403;2376
68;0.2843807999997807;2376
69;0.28679939999983617;2375
70;0.28997739999977057;2375
71;0.2930583999996088;2376
72;0.2961150000000998;2376
73;0.299122599999464;2376
74;0.3017166999998153;2376
75;0.3051279000001159;2376
76;0.3081148999999641;2376
77;0.31109699999979057;2376
78;0.31411969999953726;2376
79;0.31678439999996044;2376
80;0.3201210999995965;2375
81;0.32311440000012226;2375
82;0.326119700000163;2375
83;0.32913920000009966;2375
84;0.3320739999999205;2375
85;0.3351345000000947;2375
86;0.33810019999964425;2375
87;0.34110659999987547;2375
88;0.34410789999947156;2374
89;0.34710069999982807;2374
90;0.3499893999996857;2375
91;0.35275199999978213;2374
92;0.35472289999961504;2374
93;0.35670349999963946;2374
94;0.35872589999962656;2374
95;0.3620301000000836;2374
96;0.36498070000016014;2374
97;0.36806720000004134;2374
98;0.3709707999996681;2374
99;0.37396459999945364;2374
100;0.37697990000015125;2374
101;0.37975860000005923;2374
102;0.38309529999969527;2374
103;0.3856982999996035;2375
104;0.388944199999969;2375
105;0.39192949999960547;2375
106;0.39492519999930664;2375
107;0.3980876999994507;2375
108;0.4009584999994331;2375
109;0.4038504999998622;2375
110;0.40681619999941177;2375
111;0.4089213999995991;2375
112;0.41204800000014075;2375
113;0.41493029999946884;2375
114;0.418035300000156;2375
115;0.42076039999938075;2375
116;0.42387199999939185;2376
117;0.427042999999685;2376
118;0.42985889999999927;2376
119;0.4329342999999426;2376
120;0.435714199999893;2376
121;0.4388576999999714;2376
122;0.4420468999996956;2376
123;0.4448965000001408;2376
124;0.4481261999999333;2376
125;0.45108759999948234;2376
126;0.45394889999988663;2376
127;0.4569471999993766;2376
128;0.4601911999998265;2376
129;0.4631601999999475;2376
130;0.46615919999931066;2375
131;0.468699199999719;2376
132;0.4719758000001093;2376
133;0.476279099999374;2375
134;0.47915199999988545;2375
135;0.4818909999994503;2375
136;0.48483759999999165;2375
137;0.48779449999983626;2375
138;0.49117740000019694;2375
139;0.4942438999996739;2375
140;0.4969350999999733;2375
141;0.4999793999995745;2375
142;0.5026692999999796;2375
143;0.505975999999464;2375
144;0.5093038999993951;2375
145;0.5131066999992981;2374
146;0.5159426000000167;2375
147;0.5186930999998367;2375
148;0.5216351999997642;2374
149;0.5238828999999896;2375
150;0.5269695999995747;2375
151;0.5299154999993334;2375
152;0.5329193999996278;2375
153;0.5356735999994271;2375
154;0.5388200999996116;2375
155;0.5422432999994271;2375
156;0.5460985999998229;2375
157;0.5489386999997805;2376
158;0.5517210999996678;2376
159;0.5547277999994549;2376
160;0.5583204999993541;2376
161;0.5623393999994732;2376
162;0.5660921999997299;2376
163;0.5686310000000958;2376
164;0.5706675999999788;2376
165;0.5739663999993354;2376
166;0.5774037000001044;2376
167;0.5809835000000021;2376
168;0.5839919000000009;2377
169;0.587013599999409;2377
170;0.590408899999602;2376
171;0.5943736999997782;2377
172;0.5985160000000178;2376
173;0.6021364999996877;2376
174;0.6064466999996512;2376
175;0.610515100000157;2376
176;0.6143790999994962;2376
177;0.6183579999997164;2376
178;0.6222437999995236;2376
179;0.625100499999462;2376
180;0.6292720000001282;2376
181;0.6331708999996408;2376
182;0.6359185999999681;2376
183;0.6393497999997635;2376
184;0.6423037999993539;2376
185;0.6463327999999819;2376
186;0.6503990000001068;2376
187;0.6553199999998469;2375
188;0.6592352999996365;2375
189;0.6632540999999037;2375
190;0.6672584999996616;2375
191;0.6697776000000886;2376
192;0.6733471999996254;2375
193;0.6760592000000543;2376
194;0.6801876999998058;2376
195;0.6829770999993343;2376
196;0.6868797999995877;2376
197;0.690346899999895;2375
198;0.6930781000000934;2376
199;0.6963808000000427;2375
200;0.7003039999999601;2375
201;0.702724699999635;2375
202;0.7060476999995444;2375
203;0.7091413999996803;2375
204;0.7131837999995696;2375
205;0.7162877999999182;2375
206;0.7188557999998011;2375
207;0.7224013999993986;2375
208;0.7264304000000266;2375
209;0.7304316999998264;2375
210;0.7344468000001143;2375
211;0.7381513999998788;2375
212;0.7412999999996828;2375
213;0.7453426000001855;2376
214;0.749417999999423;2376
215;0.7528881999996884;2376
216;0.7561893000001874;2376
217;0.758768699999564;2376
218;0.7623493000000963;2376
219;0.766376699999455;2376
220;0.7698174999995899;2376
221;0.773201599999993;2377
222;0.7761268999993263;2377
223;0.7791281999998318;2377
224;0.7818969999998444;2377
225;0.7859199999993507;2377
226;0.7890702999993664;2377
227;0.7923217999996268;2377
228;0.7961058999999295;2377
229;0.7991922000001068;2378
230;0.8017197999997734;2377
231;0.8054819999997562;2377
232;0.8093215999997483;2377
233;0.812321499999598;2377
234;0.8161832999994658;2377
235;0.8198351000000912;2376
236;0.8232677999994849;2376
237;0.8261130000000776;2376
238;0.8292634999997972;2375
239;0.8334144999998898;2375
240;0.8367718999998033;2375
241;0.8403766000001269;2375
242;0.8443941999994422;2375
243;0.8484296999995422;2375
244;0.8520219000001816;2375
245;0.8553581999995004;2375
246;0.8593508999992991;2375
247;0.8621586999997817;2375
248;0.8650936999993064;2375
249;0.8690560999993977;2375
250;0.8719720999997662;2374
251;0.8753264999995736;2375
252;0.8793695999993361;2375
253;0.8834421000001385;2375
254;0.8880629999994198;2375
255;0.8922348999994938;2375
256;0.895199199999297;2376
257;0.8982286999998905;2375
258;0.901467199999388;2376
259;0.9037473999997019;2376
260;0.9069190000000162;2376
261;0.9104409999999916;2376
262;0.9142974999995204;2376
263;0.9184577999994872;2376
264;0.922066499999346;2376
265;0.9260049999993498;2376
266;0.9293263999998089;2376
267;0.933422199999768;2376
268;0.9367642999995951;2376
269;0.9401220999998259;2376
270;0.9432077999999819;2376
271;0.9474881999994977;2376
272;0.9511806999998953;2376
273;0.9538851999996041;2376
274;0.9572220999998535;2376
275;0.9612786999996388;2376
276;0.9652095000001282;2376
277;0.9680359999993016;2376
278;0.9714359999998123;2376
279;0.9751980000000913;2376
280;0.9779140000000552;2376
281;0.9808331999993243;2376
282;0.9838103000001865;2376
283;0.9856908000001567;2376
284;0.9892921999999089;2376
285;0.9932559999997466;2376
286;0.9961967999997796;2377
287;0.9990036999997756;2376
288;1.0018727999995463;2376
289;1.0053037999996377;2376
290;1.008833500000037;2376
291;1.0119808999997986;2376
292;1.015022599999611;2376
293;1.0178281999997125;2376
294;1.0212649999994028;2376
295;1.0241353000001254;2375
296;1.0272645999993983;2376
297;1.0301475999995091;2376
298;1.0329092000001765;2375
299;1.035740799999985;2375
300;1.0390177999997832;2375
301;1.0417493999993894;2376
302;1.0449109999999564;2375
303;1.0479832999999417;2375
304;1.050887800000055;2375
305;1.0527726999998777;2375
306;1.0558184999999867;2375
307;1.0588512999993327;2375
308;1.061920399999508;2376
309;1.0649190999993152;2376
310;1.0680327000000034;2376
311;1.0709679999999935;2376
312;1.0736879999994926;2376
313;1.076876799999809;2376
314;1.0799610999993092;2377
315;1.0827875999993921;2377
316;1.0857853999996223;2377
317;1.1008839999994962;2377
318;1.1227173999996012;2379
319;1.1258137999993778;2378
320;1.1276567999993858;2378
321;1.1304030000001148;2378
322;1.1325760999998238;2378
323;1.135776299999634;2378
324;1.1380989999997837;2378
325;1.1412890999999945;2378
326;1.1443191999996998;2377
327;1.1485009999996691;2377
328;1.150753299999451;2377
329;1.1528471999999965;2376
330;1.155858399999488;2376
331;1.158943200000067;2376
332;1.16185619999942;2376
333;1.1649606000000858;2376
334;1.1679424999992989;2376
335;1.1708740999993097;2376
336;1.1739318999998432;2376
337;1.177039899999727;2376
338;1.1798966999995173;2375
339;1.1826836999998704;2375
340;1.1856250999999247;2375
341;1.1886980999997832;2376
342;1.191021599999658;2375
343;1.1938958999999159;2375
344;1.1967549999999392;2375
345;1.199848799999927;2375
346;1.2017409000000043;2376
347;1.2038102999995317;2376
348;1.2057664999992994;2376
349;1.2086798999998791;2376
350;1.2112726999994265;2376
351;1.2138108999997712;2376
352;1.2168751999997767;2376
353;1.219859599999836;2377
354;1.2228174000001673;2377
355;1.2259442999993553;2377
356;1.2291408999999476;2377
357;1.2320902000001297;2377
358;1.2357860000001892;2378
359;1.238928699999633;2378
360;1.2419468999996752;2378
361;1.245048400000087;2377
362;1.2479549999998198;2377
363;1.25081979999959;2378
364;1.2529995999993844;2378
365;1.2560003999997207;2378
366;1.2587813999998616;2378
367;1.2620941999994102;2378
368;1.2650813999998718;2378
369;1.267679199999293;2378
370;1.2700559999993857;2378
371;1.2730187999995906;2378
372;1.2760699000000386;2378
373;1.2790666999999303;2378
374;1.2820283000000927;2378
375;1.2848802999997133;2378
376;1.287012899999354;2378
377;1.2900200999993103;2378
378;1.293081699999675;2378
379;1.2960739999998623;2378
380;1.2990540000000692;2378
381;1.3016750999995566;2378
382;1.3049561999996513;2379
383;1.3079399999996895;2379
384;1.3109549000000698;2379
385;1.313936300000023;2379
386;1.3169428000001062;2379
387;1.32008869999936;2379
388;1.3230868999999075;2379
389;1.3260859000001801;2380
390;1.3290913000000728;2380
391;1.3320779999994556;2380
392;1.334905599999729;2379
393;1.3380919000001086;2380
394;1.3410847999994076;2380
395;1.3440795999995316;2380
396;1.3470870999999534;2379
397;1.3500745000001189;2379
398;1.3530661999993754;2379
399;1.3560636000001978;2379
400;1.3590512000000672;2380
401;1.362066099999538;2380
402;1.3649306999996043;2380
403;1.3680725999993228;2380
404;1.371075699999892;2380
405;1.3740686999999525;2380
406;1.3770745000001625;2380
407;1.3800830000000133;2381
408;1.383071100000052;2381
409;1.3860727000001134;2381
410;1.3890565000001516;2381
411;1.3920618000001923;2382
412;1.3950659000001906;2382
413;1.3980725999999777;2381
414;1.4010674000001018;2381
415;1.404068400000142;2382
416;1.4070658999999068;2382
417;1.4100686000001588;2382
418;1.4130711999996493;2383
419;1.416074099999605;2383
420;1.418826000000081;2383
421;1.4220657999994728;2384
422;1.4250650999993013;2384
423;1.4277187999996386;2384
424;1.4310678000001644;2384
425;1.4340683000000354;2384
426;1.4370734999993147;2384
427;1.4400715000001583;2384
428;1.4430241000000024;2385
429;1.4460708999995404;2385
430;1.4490765999998985;2385
431;1.4517329999998765;2385
432;1.4550645999997869;2385
433;1.4577765999993062;2385
434;1.4610709999997198;2385
435;1.4640574999993987;2384
436;1.4670710000000327;2384
437;1.4700745999998617;2384
438;1.4730706000000282;2385
439;1.4757143999995606;2385
440;1.4790671999999176;2385
441;1.4820783999994092;2385
442;1.4848744999999326;2386
443;1.4880724999993618;2386
444;1.4910807999995086;2386
445;1.4940836999994644;2387
446;1.497063299999354;2387
447;1.5000634999996691;2387
448;1.5030658999994557;2387
449;1.506033199999365;2387
450;1.5090709999994942;2387
451;1.5120649000000412;2387
452;1.5150690999998915;2387
453;1.5180761999999959;2387
454;1.5210651999996117;2387
455;1.5240794000001188;2387
456;1.5270565999999235;2387
457;1.5300688999996055;2387
458;1.5330500999998549;2388
459;1.5360704999993686;2389
460;1.539076699999896;2390
461;1.5420525999998063;2390
462;1.545064399999319;2390
463;1.5480376999994405;2389
464;1.5510691999998016;2390
465;1.5540788999996948;2390
466;1.5570665999994162;2390
467;1.5600741999996899;2390
468;1.5630694000001313;2390
469;1.566069200000129;2390
470;1.568677299999763;2389
471;1.5720633000000817;2389
472;1.5750717999999324;2390
473;1.5780728999998246;2390
474;1.581026899999415;2390
475;1.5840735000001587;2390
476;1.5870768999993743;2391
477;1.5900682999999844;2391
478;1.5930659999994532;2391
479;1.5960690000001705;2391
480;1.5990366999994876;2392
481;1.6017535000000862;2392
482;1.6050713999993604;2392
483;1.6080688000001828;2392
484;1.6110651999997572;2392
485;1.6140667999998186;2392
486;1.6167951999996149;2392
487;1.6200650999999198;2392
488;1.6230612999997902;2393
489;1.6260732999999163;2393
490;1.6290502000001652;2393
491;1.6319149999999354;2393
492;1.6348142999995616;2393
493;1.6380478999999468;2394
494;1.6410730999996304;2395
495;1.644068999999945;2395
496;1.6470736000001125;2395
497;1.6500657999995383;2396
498;1.653062399999726;2396
499;1.6560921999998754;2396
500;1.659075099999427;2396
501;1.6620652000001428;2397
502;1.6650769999996555;2398
503;1.668064399999821;2398
504;1.6710717999994813;2398
505;1.6740633999997954;2398
506;1.6770847999996477;2399
507;1.680071599999792;2399
508;1.683068700000149;2399
509;1.686067799999364;2400
510;1.6890489999996134;2400
511;1.6920684999995501;2400
512;1.6947137999995903;2401
513;1.6980846999995265;2401
514;1.7010341999994125;2400
515;1.704069200000049;2401
516;1.7070690999998988;2401
517;1.7100285999995322;2401
518;1.7131005999999616;2401
519;1.7159135000001697;2401
520;1.718744499999957;2401
521;1.7219035999996777;2401
522;1.724907699999676;2401
523;1.7279073999998218;2401
524;1.730970999999954;2401
525;1.7340434999996432;2402
526;1.7370584999998755;2402
527;1.7400477999999566;2402
528;1.7430516999993415;2402
529;1.7460487999996985;2403
530;1.749066700000185;2403
531;1.7517386999998052;2404
532;1.7550547999999253;2404
533;1.7580293000000893;2404
534;1.761058199999752;2405
535;1.764046700000108;2405
536;1.7667553999999654;2405
537;1.7700745000001916;2405
538;1.7730436000001646;2406
539;1.7760803000001033;2406
540;1.7790564999995695;2406
541;1.7820248999996693;2407
542;1.784793499999978;2407
543;1.7880599999998594;2408
544;1.7910658999999214;2408
545;1.7940521999998964;2409
546;1.7970569999997679;2409
547;1.799808299999313;2410
548;1.8029725999995208;2410
549;1.805870899999718;2410
550;1.8088942999993378;2410
551;1.8118844999999055;2410
552;1.8148854999999458;2410
553;1.817896099999416;2410
554;1.8209603999994215;2410
555;1.823899999999412;2410
556;1.826905799999622;2411
557;1.8298809999996593;2411
558;1.8328770999996777;2411
559;1.8358487999994395;2411
560;1.8390530999995462;2412
561;1.8420534999995652;2413
562;1.8450773999993544;2414
563;1.8481283000000985;2414
564;1.8511410000000978;2414
565;1.8540908999993917;2415
566;1.8570890000000873;2415
567;1.860043599999699;2415
568;1.863084799999342;2415
569;1.8660805999998047;2416
570;1.868809699999474;2415
571;1.8721091999996133;2416
572;1.8750537999994776;2416
573;1.8780473999995593;2416
574;1.880967099999907;2417
575;1.8838010999998005;2417
576;1.8871062999996866;2418
577;1.8900721999998495;2418
578;1.8930842999998276;2418
579;1.896052499999314;2418
580;1.8991044999993392;2419
581;1.9017739999999321;2419
582;1.9048130000001038;2420
583;1.9083239000001413;2420
584;1.9123822000001383;2420
585;1.9159495999992942;2420
586;1.9189105999994354;2420
587;1.9222319999998945;2421
588;1.9251785999995263;2421
589;1.9281719000000521;2421
590;1.9310226999996303;2421
591;1.933996699999625;2421
592;1.9369864000000234;2421
593;1.9399923000000854;2421
594;1.9429655999992974;2422
595;1.9459508999998434;2422
596;1.948972799999865;2422
597;1.9518090999999913;2423
598;1.954939899999772;2423
599;1.9579730999994354;2423
600;1.9609940000000279;2423
601;1.963980300000003;2423
602;1.9669754999995348;2424
603;1.9700042999993457;2424
604;1.9729989999996178;2423
605;1.9759755999994013;2423
606;1.978980999999294;2423
607;1.9819969999998648;2423
608;1.9848299999994197;2423
609;1.987993199999437;2423
610;1.9910001999996894;2423
611;1.9937337000001207;2423
612;1.997011699999348;2422
613;2.0000014999995983;2423
614;2.003006799999639;2423
615;2.0059621000000334;2424
616;2.0090057999996134;2424
617;2.0119979999999487;2424
618;2.014974099999563;2424
619;2.0180092000000514;2424
620;2.0209985000001325;2424
621;2.0240020000001095;2424
622;2.0269938000001275;2424
623;2.0300031999995554;2424
624;2.033005100000082;2424
625;2.0361084999995;2424
626;2.039071000000149;2425
627;2.042108599999665;2425
628;2.0450648999994883;2425
629;2.047998799999732;2426
630;2.0511250999998083;2426
631;2.0541081999999733;2426
632;2.0568413999999393;2426
633;2.060102899999947;2426
634;2.063106099999459;2427
635;2.066069200000129;2427
636;2.068851399999403;2427
637;2.0721143000000666;2428
638;2.0751036999999997;2428
639;2.078102999999828;2427
640;2.081100200000037;2428
641;2.084103299999697;2428
642;2.0870766999996704;2428
643;2.090098399999988;2428
644;2.0931080000000293;2428
645;2.096105099999477;2428
646;2.0990869999995994;2428
647;2.101903400000083;2428
648;2.105103999999301;2429
649;2.108101799999531;2429
650;2.1111061000001428;2429
651;2.114107299999887;2429
652;2.11709989999963;2429
653;2.12000689999968;2430
654;2.1231054999998378;2430
655;2.1261077999997724;2430
656;2.1291096999993897;2430
657;2.1320802000000185;2430
658;2.134769499999493;2430
659;2.138100199999826;2430
660;2.141105699999571;2430
661;2.1440677000000505;2430
662;2.1471026999997775;2430
663;2.150101000000177;2431
664;2.1528848999996626;2431
665;2.1561001000000033;2431
666;2.158878599999298;2430
667;2.1621094000001904;2431
668;2.165087499999572;2430
669;2.168066000000181;2431
670;2.171110599999338;2431
671;2.174078500000178;2431
672;2.1771115000001373;2430
673;2.180119300000115;2430
674;2.1831130999999004;2430
675;2.1861111999996865;2430
676;2.1891013999993447;2430
677;2.1921093000000837;2430
678;2.1951014999995095;2430
679;2.198109099999783;2430
680;2.201127700000143;2431
681;2.2040751999993518;2431
682;2.207106799999565;2431
683;2.2101083999996263;2430
684;2.2129190999994535;2431
685;2.2159357000000455;2431
686;2.2188827999998466;2431
687;2.222080200000164;2431
688;2.225089200000184;2431
689;2.2280830999998216;2431
690;2.231001699999979;2432
691;2.233889099999942;2432
692;2.2371063000000504;2432
693;2.240072099999452;2432
694;2.2431047999998555;2432
695;2.246103800000128;2433
696;2.24908509999932;2433
697;2.251851999999417;2433
698;2.2549621999996816;2433
699;2.259501300000011;2433
700;2.2634603999995306;2433
701;2.2670318000000407;2433
702;2.2704336999995576;2434
703;2.2744980999996187;2434
704;2.2784653999997317;2433
705;2.2824689999997645;2434
706;2.2848447999995187;2434
707;2.2894218000001274;2434
708;2.293373800000154;2434
709;2.297411800000191;2434
710;2.3014275999994425;2434
711;2.305410299999494;2434
712;2.3094074999999066;2434
713;2.3133977999996205;2434
714;2.317378899999312;2434
715;2.3203491999993275;2434
716;2.3244151999997484;2435
717;2.328417300000183;2435
718;2.3319492000000537;2435
