;time;amplitude
0;0.003027499999916472;2412
1;0.006263500000386557;2413
2;0.009067700000741752;2413
3;0.012076600000000326;2413
4;0.015177000000221597;2414
5;0.018251100000270526;2414
6;0.021062499999970896;2415
7;0.02418889999989915;2415
8;0.027178500000445638;2416
9;0.03008880000015779;2416
10;0.03308230000038748;2417
11;0.03613980000045558;2417
12;0.039174000000457454;2417
13;0.04232250000040949;2417
14;0.04532790000030218;2418
15;0.04819180000049528;2418
16;0.05105790000015986;2419
17;0.05429970000022877;2420
18;0.05771590000040305;2420
19;0.06169860000045446;2421
20;0.06569670000044425;2421
21;0.06973130000005767;2422
22;0.07354340000074444;2422
23;0.07724230000076204;2423
24;0.08070110000062414;2423
25;0.08473899999989953;2424
26;0.08824370000002091;2425
27;0.09153990000049816;2425
28;0.09542640000017855;2426
29;0.09975780000058876;2427
30;0.10340720000021975;2427
31;0.10658130000047095;2428
32;0.10987460000069404;2429
33;0.11348440000074334;2430
34;0.11751600000025064;2431
35;0.12097850000009203;2431
36;0.12418049999996583;2431
37;0.12688880000041536;2432
38;0.12882880000051955;2432
39;0.13193649999993795;2433
40;0.13394599999992352;2433
41;0.13688380000075995;2433
42;0.1388622000004034;2433
43;0.14209240000036516;2434
44;0.1448497999999745;2434
45;0.14688759999989998;2434
46;0.14875580000079935;2434
47;0.15070290000039677;2434
48;0.15278930000022228;2435
49;0.155850900000587;2435
50;0.15801180000016757;2436
51;0.1611962000006315;2436
52;0.16393330000028072;2436
53;0.1668883000002097;2437
54;0.16890020000028017;2437
55;0.17075220000060654;2437
56;0.17430140000033134;2438
57;0.17733190000035393;2439
58;0.1801550000000134;2439
59;0.18312090000017633;2440
60;0.18609870000000228;2440
61;0.18890280000050552;2440
62;0.1922242999999071;2441
63;0.1963809000008041;2442
64;0.19930070000009437;2443
65;0.2033885000000737;2443
66;0.2060311000004731;2444
67;0.20888060000015685;2444
68;0.21214990000044054;2445
69;0.21511960000043473;2445
70;0.21811539999998786;2446
71;0.22110740000061924;2447
72;0.22449990000040998;2447
73;0.22708510000029491;2447
74;0.22975980000046548;2447
75;0.23188950000076147;2447
76;0.23387080000065907;2448
77;0.23591010000018287;2448
78;0.2390744000003906;2449
79;0.24186510000072303;2450
80;0.24384680000002845;2450
81;0.24570410000069387;2450
82;0.24768810000023223;2451
83;0.24977029999990918;2451
84;0.2517587000002095;2451
85;0.25380260000019916;2451
86;0.25591390000045067;2452
87;0.25896390000070824;2452
88;0.2619895000007091;2453
89;0.2650696999999127;2453
90;0.2681062000001475;2453
91;0.2707211000006282;2453
92;0.2730245000002469;2454
93;0.27641590000075666;2455
94;0.27939839999999094;2455
95;0.283487900000182;2456
96;0.2875235999999859;2456
97;0.289935400000104;2457
98;0.29343860000062705;2457
99;0.2972405999998955;2458
100;0.3012395000005199;2459
101;0.3040774999999485;2460
102;0.30705140000009123;2460
103;0.3104106999999203;2461
104;0.31341860000065935;2461
105;0.31723710000005667;2461
106;0.3202387000001181;2461
107;0.3229493000008006;2461
108;0.3262233000004926;2462
109;0.3291588000001866;2462
110;0.3321590000005017;2463
111;0.335180400000354;2463
112;0.3378760000005059;2464
113;0.34006960000078834;2464
114;0.3431586000006064;2464
115;0.34615130000020145;2464
116;0.3491317000007257;2464
117;0.35218760000043403;2465
118;0.3548571000001175;2466
119;0.3579815000002782;2466
120;0.3609656000007817;2466
121;0.36402300000008836;2467
122;0.36703400000078545;2468
123;0.3701470000005429;2468
124;0.3730507000000216;2468
125;0.3762408000002324;2468
126;0.37943710000035935;2469
127;0.3834904000004826;2470
128;0.3870295000006081;2470
129;0.39003170000069076;2470
130;0.393425300000672;2471
131;0.39748620000045776;2472
132;0.40149770000061835;2473
133;0.40494980000039504;2473
134;0.4084493000000293;2473
135;0.41249210000023595;2474
136;0.41648800000075425;2474
137;0.42042700000001787;2475
138;0.422966300000553;2476
139;0.42521230000056676;2476
140;0.4284182999999757;2477
141;0.43139850000079605;2477
142;0.4340564000003724;2478
143;0.43724350000047707;2478
144;0.4401510000006965;2478
145;0.4431683000002522;2478
146;0.4461553000001004;2478
147;0.4491531000003306;2479
148;0.4521838000000571;2479
149;0.45505040000080044;2479
150;0.4580656000007366;2480
151;0.4610781000001225;2480
152;0.4640722000003734;2481
153;0.4680565000007846;2482
154;0.470907800000532;2482
155;0.4739513000004081;2483
156;0.4769186000003174;2483
157;0.4788830000006783;2484
158;0.48075620000054187;2484
159;0.48287860000073124;2485
160;0.48605440000028466;2485
161;0.4891066000000137;2485
162;0.4920646000000488;2486
163;0.49520990000019083;2486
164;0.4980866000005335;2486
165;0.5009165999999823;2486
166;0.5040438000005452;2487
167;0.5070809000008012;2487
168;0.510203900000306;2488
169;0.5130871000001207;2488
170;0.5161991000004491;2489
171;0.5190794000000096;2489
172;0.5222106999999596;2490
173;0.5250585000003412;2489
174;0.5280433000007179;2490
175;0.5310865999999805;2490
176;0.5340761000006751;2491
177;0.5372073000007731;2491
178;0.5400777000004382;2491
179;0.5432026000007681;2492
180;0.546083200000794;2492
181;0.5490736000001561;2492
182;0.552071099999921;2492
183;0.5551307000005181;2493
184;0.557994100000542;2493
185;0.5610826000001907;2494
186;0.5638951999999335;2494
187;0.565837800000736;2494
188;0.5678395000004457;2495
189;0.5698284000000058;2495
190;0.5718239000007088;2495
191;0.574901800000589;2495
192;0.5778399999999237;2496
193;0.579902100000254;2496
194;0.5819541000000754;2496
195;0.5839229000002888;2496
196;0.5858944000001429;2496
197;0.5878793000001679;2497
198;0.5911570000007487;2497
199;0.5940221999999267;2498
200;0.5968304000007265;2498
201;0.5988991000003807;2498
202;0.6008687000003192;2498
203;0.6037851000000956;2498
204;0.6058222000001479;2499
205;0.6089340000007724;2498
206;0.6107590000001437;2498
207;0.612843800000519;2499
208;0.6149041000007855;2499
209;0.6178102000003491;2499
210;0.6197787999999491;2499
211;0.6226812000004429;2499
212;0.6248467000004894;2499
213;0.6279199999999037;2500
214;0.6300048000002789;2500
215;0.6329253000003519;2500
216;0.6348778000001403;2500
217;0.6377431000000797;2500
218;0.6398462000006475;2501
219;0.6418240000002697;2501
220;0.6437203000004956;2501
221;0.6459666000000652;2502
222;0.6478579000004174;2502
223;0.6499478000005183;2502
224;0.6517247000001589;2502
225;0.6537349000000177;2502
226;0.6559717000000092;2502
227;0.65883710000071;2502
228;0.6608511000004;2502
229;0.6640375000006316;2502
230;0.6669400999999198;2502
231;0.6699373999999807;2503
232;0.67184030000044;2503
233;0.6739141000007294;2503
234;0.6758614000000307;2504
235;0.6778073000004952;2504
236;0.6797888999999486;2504
237;0.6819660000001022;2504
238;0.6847173000005569;2504
239;0.6869446999999127;2504
240;0.6889053000004424;2504
241;0.6917757999999594;2505
242;0.6938010000003487;2505
243;0.6959423000007519;2505
244;0.6979745000007824;2505
245;0.7008803000007902;2506
246;0.7028650000002017;2506
247;0.7050095000004148;2506
248;0.7078936000007161;2506
249;0.7098212999999305;2506
250;0.7119563000005655;2506
251;0.7148154000005889;2506
252;0.7166824000005363;2506
253;0.7188227000006009;2506
254;0.7207775000006222;2507
255;0.7228656000006595;2507
256;0.7248700000000099;2508
257;0.7267180000008011;2508
258;0.7287144000001717;2508
259;0.7306782000005114;2509
260;0.7326658000001771;2508
261;0.7347945999999865;2508
262;0.7368187000001853;2509
263;0.7388958999999886;2509
264;0.7418600999999398;2510
265;0.745139200000267;2509
266;0.7478902000002563;2509
267;0.7508563000001232;2509
268;0.7538193000000319;2510
269;0.756205100000443;2510
270;0.7590255000004618;2511
271;0.7620730000007825;2511
272;0.7648024000000078;2511
273;0.7667549000007057;2511
274;0.7689153999999689;2512
275;0.770777900000212;2512
276;0.7728965000005701;2512
277;0.7747368000000279;2512
278;0.7767091000005166;2512
279;0.7787262000001647;2512
280;0.7806997000006959;2512
281;0.782854000000043;2512
282;0.7849185000004582;2512
283;0.7869679000004908;2512
284;0.7889850000001388;2512
285;0.7919357999999193;2512
286;0.79373410000062;2512
287;0.7968553000000611;2512
288;0.798870600000555;2512
289;0.8007777000002534;2512
290;0.8030892000006133;2512
291;0.8061090000001059;2512
292;0.8089042000001427;2512
293;0.8118670000003476;2512
294;0.8140456000000995;2513
295;0.8167944000006173;2513
296;0.818876000000273;2513
297;0.821011200000612;2513
298;0.8239444000000731;2513
299;0.8259169000002657;2513
300;0.8277131000004374;2513
301;0.8298087000002852;2513
302;0.831937700000708;2513
303;0.8348601000006965;2513
304;0.8368209000000206;2513
305;0.8388263000006191;2513
306;0.8418043000001489;2513
307;0.8438474000004135;2514
308;0.8459026999998969;2514
309;0.8478382000002966;2514
310;0.8498136000007435;2514
311;0.8519080000005488;2514
312;0.8537641000002623;2514
313;0.8560124000005089;2514
314;0.8589030000002822;2514
315;0.8619294000000082;2514
316;0.8649435000006633;2514
317;0.8683553999999276;2514
318;0.8708291000002646;2515
319;0.8728928000000451;2515
320;0.8761678999999276;2515
321;0.8791730000002644;2515
322;0.88217750000058;2515
323;0.8852022000000943;2515
324;0.8879123000006075;2515
325;0.8911796000002141;2515
326;0.8941804000005504;2515
327;0.8971753000005265;2516
328;0.900171300000693;2516
329;0.9031979000001229;2516
330;0.9060945000001084;2516
331;0.9091224000003422;2517
332;0.9121714000002612;2517
333;0.9151726000000053;2516
334;0.9182104999999865;2516
335;0.9208447999999407;2517
336;0.9242129000003843;2517
337;0.9271830000006958;2517
338;0.930167700000311;2517
339;0.933204800000567;2517
340;0.9360543000002508;2517
341;0.9390859000004639;2517
342;0.9420679000004384;2517
343;0.9450667999999496;2517
344;0.9480665999999474;2517
345;0.9510647000006429;2517
346;0.9539081000002625;2517
347;0.9572002000004431;2517
348;0.9602013000003353;2516
349;0.9632252000001245;2517
350;0.9661819000002652;2517
351;0.9692019000003711;2516
352;0.9721861000007266;2517
353;0.9752027000004091;2516
354;0.9781861999999819;2516
355;0.9811833000003389;2516
356;0.9841899000002741;2516
357;0.9871683999999732;2516
358;0.9901775000007547;2517
359;0.9931777000001603;2516
360;0.9961777000007714;2516
361;0.9988111000002391;2516
362;1.0021884000007049;2516
363;1.0051888000007239;2516
364;1.00817570000072;2516
365;1.0111801000002743;2516
366;1.0141364999999496;2516
367;1.0169040000000678;2516
368;1.020074800000657;2516
369;1.0231025000002774;2516
370;1.026186800000687;2516
371;1.0291837000004307;2516
372;1.0319568000004438;2516
373;1.0338701999999103;2516
374;1.035899800000152;2516
375;1.0379279000007955;2516
376;1.0409354000003077;2516
377;1.0429394000002503;2516
378;1.0448141000006217;2515
379;1.0469129000002795;2515
380;1.0488749000005555;2515
381;1.0508537000005163;2516
382;1.0528484000005847;2516
383;1.0549212000005355;2516
384;1.0569105000004129;2516
385;1.0588978000005227;2516
386;1.0609162000000651;2516
387;1.0629263999999239;2516
388;1.0648788000007698;2516
389;1.0668755000006058;2516
390;1.0699499000002106;2516
391;1.0719677000006413;2516
392;1.073863500000698;2516
393;1.0769392000001972;2516
394;1.0789444000001822;2516
395;1.0819250000004104;2516
396;1.083921200000077;2516
397;1.0859322000005704;2516
398;1.0879115000007005;2516
399;1.090037900000425;2517
400;1.0934486000005563;2517
401;1.0973231000007218;2517
402;1.1005675000005795;2517
403;1.1039754000003086;2516
404;1.1071842999999717;2517
405;1.1100866000006135;2517
406;1.1130376000000979;2517
407;1.1160730000001422;2517
408;1.1190771999999924;2517
409;1.122101400000247;2518
410;1.1248952000005374;2518
411;1.1278906000006828;2518
412;1.1310905000000275;2518
413;1.1340585000007195;2518
414;1.1371241000006194;2518
415;1.1400774000003366;2518
416;1.1431001999999353;2518
417;1.1460867000005237;2518
418;1.1491024000006291;2518
419;1.1521130000000994;2519
420;1.1549321000002237;2519
421;1.157108600000356;2519
422;1.1600805000007313;2518
423;1.1628092000000834;2518
424;1.1649647000003824;2519
425;1.1668959000007817;2519
426;1.16985460000069;2519
427;1.1718564000002516;2519
428;1.1738414000001285;2519
429;1.1759305000005043;2519
430;1.1789683000006335;2519
431;1.1820428000000902;2519
432;1.1848056000008;2518
433;1.1869369000005463;2518
434;1.189088800000718;2518
435;1.1918156000001545;2518
436;1.1938512000006085;2518
437;1.196805200000199;2518
438;1.1987816999999268;2518
439;1.2009192000004987;2517
440;1.203820700000506;2517
441;1.2058027000002767;2517
442;1.207922800000233;2517
443;1.2097321999999622;2517
444;1.211804999999913;2517
445;1.2138909000004787;2517
446;1.2158132000004116;2517
447;1.2178917000001093;2517
448;1.219792700000653;2517
449;1.2217571999999564;2517
450;1.2237987000007706;2517
451;1.2257761000000755;2517
452;1.2279267000003529;2516
453;1.2297881000004054;2517
454;1.231882100000803;2517
455;1.2338400000007823;2517
456;1.2358151000007638;2517
457;1.2377818000004481;2517
458;1.2409044000005451;2517
459;1.242883900000379;2517
460;1.2447686000004978;2517
461;1.2468985000004977;2517
462;1.2487533000003168;2517
463;1.2507218000000648;2517
464;1.252749600000243;2517
465;1.2548234000005323;2517
466;1.2578292000007423;2517
467;1.2598043000007237;2517
468;1.2619165000005523;2517
469;1.2637780000004568;2517
470;1.2659480000002077;2517
471;1.267919100000654;2517
472;1.2698731000000407;2517
473;1.2719628000004377;2517
474;1.27390270000069;2517
475;1.2758835000004183;2517
476;1.2787731000007625;2517
477;1.2809524000003876;2516
478;1.2829515000003084;2516
479;1.284827000000405;2516
480;1.2869129999999132;2516
481;1.2888037000002441;2516
482;1.2906713000002128;2516
483;1.2929284000001644;2516
484;1.2949004000001878;2516
485;1.296889100000044;2516
486;1.2987769000001208;2516
487;1.3007910000005722;2516
488;1.302926700000171;2516
489;1.3048458000002938;2516
490;1.3067846000003556;2516
491;1.308899200000269;2517
492;1.3109604999999647;2517
493;1.3128077999999732;2517
494;1.314925000000585;2516
495;1.3169084000001021;2516
496;1.3188258000000133;2516
497;1.320778600000267;2516
498;1.3229239000002053;2516
499;1.3247685000005731;2516
500;1.3269293000003017;2516
501;1.3289097000006223;2516
502;1.3308704000000944;2516
503;1.3328447000003507;2516
504;1.334833400000207;2517
505;1.3369600000005448;2517
506;1.3387673000006544;2517
507;1.340772100000322;2516
508;1.3429435000007288;2516
509;1.3458032000007734;2516
510;1.3477724000003946;2516
511;1.3498877000001812;2517
512;1.3519527000007656;2517
513;1.3537707000004957;2517
514;1.3558943000007275;2517
515;1.3579098000000158;2517
516;1.3597629000005327;2517
517;1.3617345000002388;2517
518;1.363911200000075;2516
519;1.3657517000001462;2516
520;1.367912300000171;2516
521;1.3698962000007668;2516
522;1.371888000000581;2516
523;1.3737642000005508;2516
524;1.3757892000003267;2516
525;1.3779131000001144;2516
526;1.380818999999974;2516
527;1.3829178000005413;2516
528;1.3859793999999965;2516
529;1.3888495999999577;2516
530;1.3919905000002473;2516
531;1.3954842000002827;2516
532;1.3982959000004485;2517
533;1.4022689000003083;2517
534;1.4048228999999992;2517
535;1.4071840000005977;2517
536;1.4098595000004934;2516
537;1.4120646999999735;2517
538;1.41518300000007;2517
539;1.418109700000059;2517
540;1.4209444000007352;2517
541;1.4229535000004034;2517
542;1.4260288000004948;2517
543;1.4291982000004282;2517
544;1.4320416000000478;2517
545;1.435238500000196;2517
546;1.437894900000174;2517
547;1.4400488000001133;2517
548;1.443199100000129;2517
549;1.446043500000087;2517
550;1.4488426000007166;2517
551;1.4508700000005774;2517
552;1.4537091000001965;2517
553;1.4569616000007954;2517
554;1.4588742000005368;2517
555;1.4610326000001805;2517
556;1.4639753999999812;2517
557;1.4659632000002603;2517
558;1.4689817000007679;2517
559;1.4708150000005844;2517
560;1.473988300000201;2517
561;1.4759272999999666;2516
562;1.4778136000004451;2517
563;1.4809830000003785;2517
564;1.482858400000623;2517
565;1.4848690000007991;2517
566;1.4868080000005648;2517
567;1.4888346000007004;2516
568;1.490887400000247;2516
569;1.4928663999999117;2517
570;1.4958260000003065;2517
571;1.4979605000007723;2517
572;1.5009821000003285;2517
573;1.5028369999999995;2517
574;1.5049659000005704;2517
575;1.5079437000003963;2517
576;1.5098019000006389;2517
577;1.5118506000007983;2517
578;1.514961000000767;2517
579;1.516716200000701;2517
580;1.5188003000002936;2517
581;1.520831000000726;2517
582;1.5239237000005232;2516
583;1.5258356000003914;2516
584;1.5279606000003696;2517
585;1.5308592999999746;2517
586;1.533985300000495;2516
587;1.5359133000001748;2516
588;1.5378684000006615;2516
589;1.5408194999999978;2517
590;1.5428486999999222;2517
591;1.5447830000002796;2517
592;1.5467484999999215;2517
593;1.5487934000002497;2517
594;1.5507912000002761;2517
595;1.552770799999962;2517
596;1.5549723000003723;2517
597;1.5567508000003727;2517
598;1.558878800000457;2517
599;1.5607018000000608;2517
600;1.5629723000001832;2517
601;1.5659413000003042;2517
602;1.5678505000005316;2517
603;1.5699948000001314;2517
604;1.572880400000031;2517
605;1.5748572000002241;2517
606;1.5768105000006472;2517
607;1.5789474000002883;2517
608;1.5809241000006296;2517
609;1.5829436000003625;2517
610;1.5849461000007068;2517
611;1.5867490000000544;2517
612;1.588832800000091;2517
613;1.5908076000005167;2517
614;1.5929629000002024;2517
615;1.59489240000039;2517
616;1.5970069000004514;2517
617;1.598920299999918;2517
618;1.601987700000791;2517
619;1.6039473000000726;2517
620;1.605936400000246;2517
621;1.6089590000001408;2517
622;1.6118473000005906;2517
623;1.6139171000004353;2517
624;1.6158990000003541;2517
625;1.6177889000000505;2517
626;1.6198112000001856;2517
627;1.622009500000786;2516
628;1.624836800000594;2517
629;1.6268208000001323;2517
630;1.6288703000000169;2517
631;1.631028900000274;2517
632;1.632826500000192;2517
633;1.6349411000001055;2517
634;1.6367801000005784;2517
635;1.638788199999908;2517
636;1.6409899000000223;2517
637;1.6439804999999978;2517
638;1.6458540000003268;2517
639;1.6489621999999144;2518
640;1.6508952000003774;2518
641;1.6529743000000963;2518
642;1.6548216999999568;2518
643;1.6569709000004877;2518
644;1.6587930000005144;2518
645;1.6609619000000748;2518
646;1.6639852000007522;2518
647;1.6670176000006904;2517
648;1.6705580000007103;2517
649;1.6739654000002702;2517
650;1.6773824000001696;2517
651;1.6802768000006836;2517
652;1.6831242000007478;2517
653;1.686114300000554;2517
654;1.6890651000003345;2517
655;1.6920597000007547;2518
656;1.6952006999999867;2518
657;1.6980591000001368;2518
658;1.7008898000003683;2517
659;1.7027987000001303;2518
660;1.7049823000006654;2518
661;1.7070853000004718;2518
662;1.7099604000004547;2518
663;1.7129295000004277;2518
664;1.7149486000007528;2518
665;1.7169223000000784;2518
666;1.7205769000001965;2518
667;1.7229918000002726;2518
668;1.7259572000002663;2518
669;1.7278953000004549;2517
670;1.7311761000000843;2517
671;1.7341698000000179;2518
672;1.7369842000007338;2518
673;1.7400679000002128;2518
674;1.7429425000000265;2519
675;1.7448901000007027;2519
676;1.7469205000006696;2519
677;1.7488095000007888;2519
678;1.7509457000005568;2519
679;1.752886799999942;2519
680;1.754848999999922;2519
681;1.7569541000002573;2518
682;1.7588731000005282;2518
683;1.761824200000774;2518
684;1.763951800000541;2518
685;1.7659381000003123;2518
686;1.7679066000000603;2518
687;1.7699658000001364;2518
688;1.7719575999999506;2517
689;1.7739191999999093;2517
690;1.7758265000002211;2517
691;1.7779583000001367;2517
692;1.7798913000005996;2517
693;1.7818033000003197;2517
694;1.7839362000004257;2517
695;1.785913700000492;2518
696;1.7878203000000212;2518
697;1.7898333000002822;2517
698;1.7919727000007697;2517
699;1.7938847000004898;2517
700;1.795793300000696;2517
701;1.797915300000568;2517
702;1.799960800000008;2518
703;1.801814600000398;2518
704;1.803825400000278;2518
705;1.8059513000007428;2518
706;1.8078995000005307;2518
707;1.8109549000000698;2518
708;1.8128876000000673;2518
709;1.8149739000000409;2518
710;1.8168257000006633;2518
711;1.8189596000001984;2518
712;1.8207955000007132;2518
713;1.822777400000632;2517
714;1.8249462000003405;2517
715;1.8269434000003457;2517
716;1.8287010000003647;2517
