;time;amplitude
0;0.00941309999961959;2399
1;0.014437799999541312;2399
2;0.01950979999946867;2399
3;0.02443200000016077;2400
4;0.029457699999511533;2399
5;0.0339045000000624;2399
6;0.039221899999574816;2399
7;0.04446619999998802;2400
8;0.04892130000007455;2400
9;0.05299319999994623;2400
10;0.05700720000004367;2400
11;0.06214360000012675;2400
12;0.06657300000006217;2400
13;0.06953580000026705;2400
14;0.07235140000011597;2401
15;0.07536269999945944;2401
16;0.07847489999949175;2401
17;0.08239609999964159;2401
18;0.08560279999983322;2401
19;0.08860989999993762;2401
20;0.09163389999957872;2401
21;0.0945968999994875;2401
22;0.09747549999974581;2401
23;0.10146019999956479;2402
24;0.10445199999958277;2403
25;0.10745500000030006;2403
26;0.11046239999996033;2402
27;0.11337370000001101;2402
28;0.11646509999991395;2402
29;0.11945259999993141;2402
30;0.12245449999954872;2403
31;0.12546180000026652;2402
32;0.1284096999997928;2402
33;0.1312921999997343;2402
34;0.13446860000021843;2402
35;0.13742790000014793;2402
36;0.14042939999944792;2402
37;0.14341390000026877;2402
38;0.14641029999984312;2402
39;0.14944120000018302;2402
40;0.15242010000019945;2402
41;0.15543139999954292;2402
42;0.15842700000030163;2403
43;0.1614408999994339;2403
44;0.1644802000000709;2404
45;0.16731269999945653;2404
46;0.17030700000032084;2404
47;0.17343419999997423;2403
48;0.1761791999997513;2403
49;0.17946029999984603;2403
50;0.1824449999994613;2404
51;0.18545679999988351;2404
52;0.1884632999999667;2404
53;0.19144059999962337;2404
54;0.19444149999981164;2404
55;0.19745330000023387;2405
56;0.20041719999971974;2405
57;0.203420300000289;2405
58;0.2062670999994225;2405
59;0.21013519999996788;2405
60;0.21342420000019047;2405
61;0.21625849999963975;2406
62;0.21942109999963577;2406
63;0.22241639999992913;2406
64;0.2254066999994393;2405
65;0.2284113999994588;2405
66;0.23129119999975956;2405
67;0.23422759999994014;2405
68;0.2372376000002987;2405
69;0.24027829999977257;2405
70;0.24327730000004522;2405
71;0.24650539999947796;2406
72;0.2507364000002781;2405
73;0.2547181999998429;2405
74;0.2587586999998166;2406
75;0.2627316999996765;2406
76;0.2663444999998319;2406
77;0.2696416999997382;2406
78;0.2734215000000404;2406
79;0.27731889999995474;2407
80;0.2806387000000541;2407
81;0.2837833000003229;2407
82;0.28734389999954146;2408
83;0.29046459999972285;2408
84;0.2943899000001693;2408
85;0.2972767000001113;2409
86;0.3007849999994505;2409
87;0.30480790000001434;2409
88;0.3088166999996247;2409
89;0.31280749999950785;2410
90;0.31645729999945615;2410
91;0.32081749999997555;2411
92;0.32481989999996586;2411
93;0.3288185000001249;2411
94;0.33225729999958276;2411
95;0.33577539999987494;2411
96;0.33980199999950855;2412
97;0.34380940000028204;2412
98;0.3477499999999054;2412
99;0.3516245999999228;2412
100;0.35565979999955744;2412
101;0.3597186999995756;2412
102;0.3637294000000111;2412
103;0.3664723000001686;2412
104;0.3707586000000447;2413
105;0.3746923999997307;2413
106;0.37873769999987417;2413
107;0.3822616999996171;2413
108;0.38571630000024015;2413
109;0.38976259999981266;2413
110;0.3937084999997751;2413
111;0.39775790000021516;2413
112;0.4006694999998217;2413
113;0.404711999999563;2414
114;0.4083596000000398;2414
115;0.411676499999885;2414
116;0.41532999999981257;2414
117;0.4186737999998513;2415
118;0.42274429999997665;2415
119;0.4262355999999272;2416
120;0.42921990000013466;2415
121;0.43222139999943465;2415
122;0.4357398000001922;2415
123;0.43956989999969664;2415
124;0.44266330000027665;2415
125;0.4467490999995789;2415
126;0.4507415999996738;2416
127;0.45481519999975717;2416
128;0.45871660000011616;2416
129;0.46275080000032176;2416
130;0.466700299999502;2416
131;0.470695799999703;2416
132;0.4747158000000127;2416
133;0.4787577999995847;2415
134;0.48228259999996226;2416
135;0.48570310000013706;2416
136;0.4882132000002457;2416
137;0.4916757000000871;2416
138;0.4957896999994773;2416
139;0.4995432999994591;2416
140;0.5035525000002963;2417
141;0.5078057999999146;2417
142;0.5118163999995886;2417
143;0.5152969999999186;2417
144;0.5193497999998726;2417
145;0.5227634000002581;2418
146;0.5267924999998286;2418
147;0.5308052000000316;2418
148;0.5343059999995603;2418
149;0.5376853999996456;2418
150;0.5417314999995142;2418
151;0.545729599999504;2418
152;0.5494171999998798;2419
153;0.5526697999994212;2419
154;0.5567377999996097;2419
155;0.5607122999999774;2419
156;0.5649443000002066;2419
157;0.5687314999995579;2419
158;0.5727009000001999;2419
159;0.5766394000002038;2418
160;0.5807724999995116;2418
161;0.5847311999996236;2419
162;0.5886355000002368;2419
163;0.5926711000001887;2419
164;0.5967283999998472;2419
165;0.59967080000024;2419
166;0.6037132999999812;2419
167;0.607737399999678;2419
168;0.6117019000002983;2419
169;0.6152210999998715;2419
170;0.6186716000001979;2420
171;0.6227380999998786;2420
172;0.6267235999994227;2421
173;0.6292757000001075;2421
174;0.6322860999998738;2421
175;0.635688399999708;2421
176;0.6397717999998349;2421
177;0.643679499999962;2421
178;0.6477156000000832;2421
179;0.6517315000000963;2421
180;0.6557444999998552;2420
181;0.6595581999999922;2420
182;0.6637669000001551;2420
183;0.666472299999441;2420
184;0.6707385999998223;2420
185;0.674821399999928;2420
186;0.6787718999994468;2420
187;0.6823132999998052;2419
188;0.6857004000003144;2419
189;0.6897386999999071;2419
190;0.6937502999999197;2419
191;0.6977248000002874;2419
192;0.701728600000024;2418
193;0.7057525000000169;2418
194;0.7084652000003189;2418
195;0.7127536999996664;2418
196;0.7167313999998441;2418
197;0.7207539999999426;2418
198;0.7247114000001602;2418
199;0.7287371000002167;2418
200;0.7323589999996329;2418
201;0.7367353999998159;2418
202;0.7402700000002369;2419
203;0.7437418999998044;2419
204;0.7477658999996493;2418
205;0.7517989999996644;2419
206;0.7563257000001613;2419
207;0.760708099999647;2419
208;0.7647969999998168;2419
209;0.7674816999997347;2419
210;0.7705710000000181;2419
211;0.774524599999495;2419
212;0.7786212000000887;2419
213;0.7822866999995313;2419
214;0.7856948999997257;2419
215;0.7897694000002957;2419
216;0.7937366999994993;2419
217;0.7978053999995609;2419
218;0.8017488999994384;2420
219;0.8057074999996985;2420
220;0.8097387999996499;2419
221;0.8135554000000411;2419
222;0.8167137000000366;2420
223;0.8194776999998794;2420
224;0.8225604999997813;2420
225;0.8267550000000483;2420
226;0.8306989000002432;2420
227;0.8336750999997093;2420
228;0.8377078000003166;2420
229;0.8417105999997148;2420
230;0.8452167999994344;2420
231;0.8482475999999224;2420
232;0.8516922999997405;2420
233;0.8544993999994404;2421
234;0.857651999999689;2421
235;0.8616832999996404;2421
236;0.8644182999996701;2422
237;0.8673798999998326;2422
238;0.8704187000003003;2422
239;0.8734101999998529;2422
240;0.8761536000001797;2421
241;0.8791831999997157;2421
242;0.8822758999995131;2421
243;0.8854415999994671;2421
244;0.8884378000002471;2421
245;0.8914514999996754;2421
246;0.8944630999994843;2420
247;0.8974631000000954;2421
248;0.9004361999996036;2421
249;0.9034538999994766;2420
250;0.9064406999996208;2420
251;0.9094445999999152;2420
252;0.912456399999428;2421
253;0.9152795999998489;2420
254;0.9184300999995685;2421
255;0.9214363999999478;2421
256;0.9242144999998345;2421
257;0.9274362999994992;2421
258;0.9304322999996657;2420
259;0.9334405999998125;2420
260;0.9364377000001696;2420
261;0.9394365999996808;2420
262;0.9424413999995522;2419
263;0.9454309000002468;2419
264;0.9481979000001957;2420
265;0.951424699999734;2420
266;0.9543631999995341;2420
267;0.9574334999997518;2420
268;0.9604416000001947;2420
269;0.9634341000000859;2420
270;0.9664271999999983;2420
271;0.9694119999994655;2421
272;0.9724059999998644;2421
273;0.9754480000001422;2421
274;0.9784508000002461;2420
275;0.9811916999997266;2420
276;0.9844364000000496;2420
277;0.9874362999998993;2420
278;0.9904478999997082;2420
279;0.9934330999994927;2419
280;0.9964491000000635;2420
281;0.9994417999996585;2420
282;1.002412199999526;2420
283;1.0054117999998198;2421
284;1.0084004000000277;2420
285;1.0114047999995819;2421
286;1.0143699999998717;2421
287;1.0172370999998748;2421
288;1.020129800000177;2420
289;1.0231136000002152;2420
290;1.0251312999998845;2421
291;1.0271247999999105;2421
292;1.0291150000002744;2421
293;1.0323873999996067;2421
294;1.0353927999994994;2421
295;1.0383961999996245;2421
296;1.04140869999992;2421
297;1.0444375999995827;2421
298;1.047427499999685;2421
299;1.0504386000002341;2421
300;1.053419899999426;2421
301;1.0563030000002982;2421
302;1.059408799999801;2421
303;1.0624207000000752;2421
304;1.0651439000002938;2421
305;1.0671494999996867;2421
306;1.0693329999994603;2421
307;1.0723324999999022;2421
308;1.0753177999995387;2421
309;1.0784019000002445;2421
310;1.0830835999995543;2420
311;1.0862553999995725;2420
312;1.0893329999998969;2420
313;1.092348199999833;2420
314;1.095243499999924;2420
315;1.0980692000002819;2420
316;1.101350299999467;2419
317;1.104341399999612;2419
318;1.1073257999996713;2419
319;1.1103261999996903;2420
320;1.1133210999996663;2420
321;1.1163003000001481;2420
322;1.119308700000147;2420
323;1.1223020999996152;2420
324;1.1252738000002864;2420
325;1.1282713999999032;2420
326;1.1311236000001372;2420
327;1.1342831000001752;2420
328;1.137314300000071;2420
329;1.1403148999997939;2421
330;1.1433170000000246;2421
331;1.146284200000082;2420
332;1.1492901999999958;2420
333;1.1523101000002498;2421
334;1.1553156999998464;2421
335;1.1581507000000784;2421
336;1.161292300000241;2421
337;1.1643287999995664;2421
338;1.167290899999898;2421
339;1.170308599999771;2421
340;1.1732755000002726;2421
341;1.1762948999994478;2421
342;1.1793135999996593;2421
343;1.1823312999995323;2421
344;1.185313899999528;2421
345;1.1883153999997376;2421
346;1.1923227999996016;2421
347;1.1953121999995346;2421
348;1.1981746000001294;2421
349;1.2013128999997207;2422
350;1.2043076999998448;2422
351;1.2073159000001397;2421
352;1.2103252999995675;2421
353;1.2133177999994587;2421
354;1.2163109000002805;2421
355;1.2194209999997838;2422
356;1.2224288999996133;2422
357;1.2254012000003058;2422
358;1.2283921999996892;2422
359;1.2311674000002313;2422
360;1.2344248999997944;2422
361;1.2374276000000464;2422
362;1.2404178999995565;2422
363;1.2434252000002743;2423
364;1.246418900000208;2423
365;1.2494213999998465;2423
366;1.252287499999511;2423
367;1.2552192000002833;2423
368;1.2581536999996388;2422
369;1.261069399999542;2422
370;1.2643447999998898;2422
371;1.2672591000000466;2421
372;1.2703714999997828;2421
373;1.273383599999761;2421
374;1.2764133999999103;2421
375;1.279244600000311;2421
376;1.2822644999996555;2422
377;1.2853556000000026;2421
378;1.2883461999999781;2422
379;1.2913571999997657;2421
380;1.294138600000224;2421
381;1.2973632000002908;2421
382;1.3002827999998772;2421
383;1.303287900000214;2422
384;1.3062909000000218;2422
385;1.3092967000002318;2422
386;1.3122621000002255;2421
387;1.315264799999568;2421
388;1.3184274999994159;2421
389;1.3214006999996855;2421
390;1.324398900000233;2421
391;1.327397099999871;2422
392;1.3301689999998416;2422
393;1.3323239000001195;2422
394;1.3352771999998367;2422
395;1.3382111000000805;2422
396;1.341796699999577;2423
397;1.3457847999998194;2423
398;1.3496903999994174;2424
399;1.3537199000002147;2423
400;1.3576892000000953;2424
401;1.3616853000003175;2424
402;1.3642660999994405;2424
403;1.3674874999996973;2424
404;1.3704397999999856;2424
405;1.3734666999998808;2424
406;1.3765050000001793;2423
407;1.38049779999983;2424
408;1.3832411000003049;2424
409;1.3864180000000488;2424
410;1.3893067999997584;2424
411;1.3924411999996664;2424
412;1.395439500000066;2424
413;1.3983578999996098;2424
414;1.4012645000002522;2424
415;1.404271499999595;2424
416;1.4070110000002387;2425
417;1.4092682000000423;2425
418;1.4122347000002264;2425
419;1.415254200000163;2425
420;1.41822349999984;2425
421;1.4212262999999439;2425
422;1.4247783999999228;2424
423;1.4289741000002323;2424
424;1.4338921999997183;2425
425;1.4377448999994158;2424
426;1.4417824000001929;2425
427;1.4461337000002459;2425
428;1.4512770999999702;2425
429;1.4564902000001894;2425
430;1.461291099999471;2425
431;1.4646352999998271;2425
432;1.4689370999994935;2425
433;1.4725427000003037;2424
434;1.4768770999999106;2424
435;1.4808412000002136;2425
436;1.4848739999997633;2425
437;1.4886955000001763;2425
438;1.4923084000001836;2425
439;1.4968667000002824;2425
440;1.5008774999996604;2425
441;1.5045032999996693;2425
442;1.50781569999981;2425
443;1.5118099000001166;2426
444;1.5153067000001101;2426
445;1.5198398000002271;2426
446;1.5236212999998315;2426
447;1.5278722000002745;2427
448;1.5315124999997352;2427
449;1.534885099999883;2427
450;1.5388958000003186;2427
451;1.5429142000002685;2428
452;1.5469175999996878;2428
453;1.5509284999998272;2428
454;1.5548590999997032;2428
455;1.558839999999691;2428
456;1.562475099999574;2428
457;1.565327100000104;2429
458;1.5698772999994617;2429
459;1.5738579999997455;2429
460;1.5778754000002664;2430
461;1.5815044000000853;2429
462;1.5848880000003192;2429
463;1.5889501999999993;2430
464;1.592921700000261;2430
465;1.5965903999995135;2430
466;1.599409899999955;2430
467;1.6025647999995272;2430
468;1.6055796999999075;2431
469;1.6085776999998416;2431
470;1.6125473000001875;2431
471;1.6152992999996059;2432
472;1.6185624999998254;2432
473;1.6215488999996523;2432
474;1.6245419999995647;2433
475;1.6275436999994781;2433
476;1.6312922999995862;2433
477;1.6345722999994905;2433
478;1.6385715999995227;2433
479;1.6415712999996686;2433
480;1.6445904000001974;2434
481;1.6474490999999034;2434
482;1.6505611000002318;2434
483;1.6535776000000624;2434
484;1.6575548999999228;2434
485;1.6605170000002545;2434
486;1.6643198000001576;2434
487;1.6675413000002663;2434
488;1.6705739999997604;2434
489;1.6745479999999588;2434
490;1.6775784000001295;2434
491;1.681351199999881;2434
492;1.6845752999997785;2435
493;1.688550199999554;2435
494;1.6915431999996144;2435
495;1.6946047000001272;2435
496;1.698395999999775;2435
497;1.7015764999996463;2436
498;1.7055439999994633;2436
499;1.7095687999999427;2437
500;1.712576299999455;2438
501;1.71654369999942;2438
502;1.7195745999997598;2438
503;1.7237028999998074;2438
504;1.7265652999994927;2438
505;1.7295654999998078;2439
506;1.7325442999999723;2439
507;1.736573700000008;2440
508;1.7404022999999142;2440
509;1.743575299999975;2440
510;1.746541100000286;2441
511;1.7495603999996092;2441
512;1.75257640000018;2441
513;1.7553145000001678;2441
514;1.7585444999995161;2442
515;1.7614297999998598;2442
516;1.7642585000003237;2442
517;1.7675758999994287;2443
518;1.7703823000001648;2443
519;1.773582499999975;2443
520;1.7765792999998666;2443
521;1.7805877999999211;2443
522;1.7835573000002114;2443
523;1.7865782999997464;2444
524;1.7905539000003046;2444
525;1.793567400000029;2445
526;1.7962871999998242;2446
527;1.7993502999997872;2446
528;1.8025830999995378;2446
529;1.8064532999997027;2446
530;1.8105596999994304;2446
531;1.8136048999995182;2447
532;1.8165119999994204;2448
533;1.8197564000001876;2448
534;1.823930699999437;2448
535;1.8279044000000795;2449
536;1.83130809999966;2449
537;1.83456169999954;2450
538;1.8385464000002685;2450
539;1.8426056999996945;2451
540;1.8465896999996403;2452
541;1.850894000000153;2452
542;1.854867000000013;2453
543;1.8588918999994348;2453
544;1.8629156999995757;2453
545;1.8669110999999248;2453
546;1.8708991000003152;2454
547;1.8749284999994416;2455
548;1.8789154999994935;2455
549;1.8833656999995583;2455
550;1.8863616999997248;2456
551;1.8896077999997942;2456
552;1.8938513000002786;2457
553;1.897544299999936;2458
554;1.9018600999997943;2459
555;1.905841099999634;2459
556;1.9098373999995601;2459
557;1.9138029999994615;2459
558;1.9178258000001733;2460
559;1.9217853000000105;2461
560;1.925791599999684;2461
561;1.9297495000000708;2462
562;1.933825899999647;2462
563;1.937762699999439;2463
564;1.9417806999999812;2463
565;1.945602300000246;2464
566;1.9497603999998319;2464
567;1.953762099999949;2465
568;1.9577387999997882;2466
569;1.9615413000001354;2466
570;1.9653640999995332;2466
571;1.968738999999914;2466
572;1.9727904000001217;2466
573;1.9767675000002782;2466
574;1.9807786999999735;2467
575;1.984734099999514;2467
576;1.9887791999999536;2468
577;1.9927896999997756;2468
578;1.9967761999996583;2468
579;1.9997223000000304;2469
580;2.003799999999501;2469
581;2.0077773000002708;2470
582;2.011788400000114;2471
583;2.0153912999994645;2472
584;2.0185790999994424;2472
585;2.022339600000123;2473
586;2.025638899999649;2474
587;2.0298838999997315;2475
588;2.0325936999997793;2476
589;2.036867099999654;2476
590;2.0408531000002768;2477
591;2.044867300000078;2477
592;2.0483133999996426;2478
593;2.0518421999995553;2479
594;2.054143700000168;2479
595;2.0573228000002928;2480
596;2.060878999999659;2481
597;2.0644148000001223;2482
598;2.0688500999995085;2482
599;2.0723136999995404;2483
600;2.0753673999997773;2483
601;2.078611400000227;2484
602;2.0825895999996646;2484
603;2.0866761999996015;2484
604;2.090683800000079;2485
605;2.0946846999995614;2485
606;2.0983589999996184;2485
607;2.1016094999995403;2485
608;2.1046132000001307;2486
609;2.108649599999808;2486
610;2.1127347999999984;2487
611;2.1166613999994297;2487
612;2.120737999999619;2488
613;2.124742199999673;2489
614;2.12872040000002;2490
615;2.1325326999995013;2490
616;2.1367614999999205;2490
617;2.140738699999929;2490
618;2.144749000000047;2491
619;2.1482937000000675;2492
620;2.1516904000000068;2491
621;2.1557480999999825;2491
622;2.159713799999736;2492
623;2.1633130000000165;2492
624;2.1667347000002337;2493
625;2.1707297000002654;2493
626;2.1747232999996413;2494
627;2.178317099999731;2494
628;2.181274599999597;2494
629;2.184325600000193;2494
630;2.1876133999994636;2494
631;2.191746200000125;2495
632;2.195764799999779;2494
633;2.19975549999981;2494
634;2.2037806999996974;2495
635;2.20778270000028;2495
636;2.2117949000003136;2495
637;2.215422799999942;2495
638;2.2187377000000197;2495
639;2.222743000000264;2496
640;2.226774199999454;2496
641;2.230819700000211;2497
642;2.2347920000001977;2498
643;2.238779700000123;2498
644;2.2427858999999444;2499
645;2.246788899999956;2499
646;2.2508216999995057;2499
647;2.254785500000253;2500
648;2.2588525999999547;2500
649;2.2627661999995325;2500
650;2.266694799999641;2501
651;2.270701100000224;2501
652;2.273710499999652;2502
653;2.2778024999997797;2502
654;2.281281699999454;2503
655;2.2846770999994988;2503
656;2.288787599999523;2504
657;2.2927867999997034;2504
658;2.296812699999464;2505
659;2.2995414999995774;2505
660;2.3025823999996646;2505
661;2.30554149999989;2506
662;2.308580699999766;2506
663;2.311558800000057;2506
664;2.315429199999926;2506
665;2.3184887999996135;2506
666;2.321501499999613;2507
667;2.3244918000000325;2507
668;2.3272872999996252;2507
669;2.3302286999996795;2507
670;2.3335182999999233;2507
671;2.3365200999996887;2508
672;2.3396341999996366;2508
673;2.343823999999586;2509
674;2.3474295999994865;2509
675;2.350473399999828;2509
676;2.354682899999716;2509
677;2.3587225000001126;2510
678;2.3627340000002732;2510
679;2.3666316999997434;2510
680;2.3706131999997524;2510
681;2.3735791999997673;2511
682;2.376584499999808;2511
683;2.379445699999451;2511
684;2.3827685999995083;2511
685;2.386746399999538;2511
686;2.3907803000001877;2511
687;2.3947677999994994;2512
688;2.3982520999998087;2512
689;2.4017554000001837;2512
690;2.4045366999998805;2512
691;2.4075997999998435;2512
692;2.4116305999996257;2512
693;2.4155800999997155;2513
694;2.4187246999999843;2512
695;2.421542699999918;2512
696;2.424599400000261;2512
697;2.4287939999994705;2512
698;2.4327492000002167;2512
699;2.435591399999794;2513
700;2.438731799999914;2513
701;2.4415587000003143;2513
702;2.444710099999611;2513
703;2.447273900000255;2513
704;2.450363699999798;2513
705;2.45336159999988;2513
706;2.456353300000046;2513
707;2.459375700000237;2514
708;2.4623679999995147;2514
709;2.465373600000021;2514
710;2.468369299999722;2514
711;2.471372799999699;2514
712;2.4743234999996275;2514
713;2.4773635999999897;2514
714;2.480390400000033;2514
715;2.4833640999995623;2514
716;2.4863734000000477;2514
717;2.4893597000000227;2514
718;2.4922875000002023;2515
719;2.4956985999997414;2515
