;time;amplitude
0;0.004312900000513764;2461
1;0.007779800000207615;2462
2;0.01122880000002624;2462
3;0.01485910000064905;2462
4;0.01929140000083862;2463
5;0.0232149000003119;2464
6;0.027269600000181526;2465
7;0.031234100000801845;2465
8;0.03523550000045361;2466
9;0.03927000000021508;2467
10;0.04324030000043422;2467
11;0.04721360000075947;2468
12;0.05130040000040026;2468
13;0.0551885000004404;2469
14;0.05911070000001928;2469
15;0.06323580000025686;2470
16;0.06729040000027453;2471
17;0.07126990000051592;2472
18;0.07524090000060824;2472
19;0.07924820000062027;2473
20;0.08321490000071208;2474
21;0.0872878000000128;2474
22;0.09123859999999695;2475
23;0.09528010000030918;2476
24;0.09893660000034288;2477
25;0.10328220000064903;2477
26;0.10723680000046443;2478
27;0.11124730000028649;2479
28;0.11491680000017368;2479
29;0.11929060000056779;2480
30;0.12323670000023412;2481
31;0.12728140000035637;2482
32;0.1311628000003111;2482
33;0.13521510000009584;2483
34;0.1392855000003692;2483
35;0.14324170000054437;2483
36;0.14683510000031674;2484
37;0.15024750000065978;2484
38;0.15426970000044093;2485
39;0.15831190000062634;2485
40;0.16210950000004232;2486
41;0.16604670000015176;2487
42;0.17008480000004056;2487
43;0.17408360000081302;2488
44;0.17780470000070636;2489
45;0.18164660000002186;2489
46;0.18609960000048886;2490
47;0.19005050000032497;2491
48;0.19370820000040112;2491
49;0.19653220000054716;2492
50;0.20007040000018605;2492
51;0.20411150000018097;2493
52;0.2080974000000424;2494
53;0.21056250000037835;2494
54;0.21352740000020276;2495
55;0.21705280000060156;2496
56;0.22111949999998615;2497
57;0.22470310000062454;2498
58;0.22802840000076685;2498
59;0.23169400000006135;2499
60;0.23502499999995052;2498
61;0.23909890000049927;2499
62;0.24305380000078003;2499
63;0.2469111000000339;2499
64;0.2500374000001102;2499
65;0.2540532000002713;2500
66;0.25764160000017;2500
67;0.2606742000007216;2501
68;0.2634531000003335;2501
69;0.2654115000004822;2501
70;0.2684549000005063;2501
71;0.27042120000078285;2501
72;0.27246090000062395;2502
73;0.27436690000013186;2502
74;0.2763922000003731;2502
75;0.27843860000029963;2502
76;0.2804040000000896;2503
77;0.28239790000043286;2503
78;0.284400800000185;2503
79;0.2874416000004203;2503
80;0.28950520000034885;2504
81;0.29247940000004746;2504
82;0.29499240000041027;2505
83;0.2990062000008038;2505
84;0.3028819000001022;2506
85;0.3068484000004901;2506
86;0.3109135000004244;2507
87;0.3146504000005734;2508
88;0.31799250000040047;2508
89;0.3220586000006733;2509
90;0.32603350000044884;2510
91;0.3300531000004412;2510
92;0.3330009000001155;2511
93;0.33574530000078084;2512
94;0.33878270000059274;2512
95;0.3417713000008007;2512
96;0.3448087000006126;2513
97;0.34761040000012144;2513
98;0.3503876000004311;2513
99;0.35388310000053025;2514
100;0.3581521000005523;2514
101;0.36229980000007345;2515
102;0.3669921000000613;2515
103;0.371450100000402;2515
104;0.37510740000016085;2515
105;0.3792566000001898;2516
106;0.382874200000515;2517
107;0.3875299000001178;2518
108;0.39251510000030976;2518
109;0.39760280000064085;2518
110;0.40253040000061446;2519
111;0.40754590000051394;2519
112;0.4126239000006535;2520
113;0.4175094000001991;2521
114;0.42250760000024457;2522
115;0.4275072000000364;2522
116;0.4321603000007599;2522
117;0.4363286000007065;2523
118;0.44032250000054773;2524
119;0.44431380000060017;2524
120;0.44798400000036054;2524
121;0.4523540000000139;2525
122;0.4563270000007833;2525
123;0.4602219000007608;2525
124;0.46431180000035965;2526
125;0.46824560000004567;2526
126;0.47203040000022156;2526
127;0.47624550000000454;2525
128;0.4803257000003214;2526
129;0.4843294000002061;2526
130;0.4883318000001964;2527
131;0.4919007000007696;2527
132;0.49634040000000823;2527
133;0.5003390000001673;2528
134;0.5043324000007487;2528
135;0.508190000000468;2529
136;0.5123339000001579;2529
137;0.5157513000003746;2530
138;0.5188317000001916;2530
139;0.5218178000004627;2530
140;0.52481330000046;2530
141;0.5279657999999472;2531
142;0.5317423000005874;2531
143;0.5348085000005085;2531
144;0.5378091000002314;2532
145;0.5408043000006728;2532
146;0.5438115000006292;2532
147;0.5468072000003303;2533
148;0.5499379000002591;2533
149;0.5539410000001226;2533
150;0.5579474000005575;2534
151;0.5607743000000482;2534
152;0.5637624000000869;2534
153;0.5669394000005923;2534
154;0.5707793999999922;2534
155;0.5749469000002136;2534
156;0.5789482000000135;2534
157;0.5829544000007445;2534
158;0.5857436000005691;2534
159;0.5888053000007858;2534
160;0.5919471000006524;2534
161;0.5947656000007555;2534
162;0.5977451000007932;2534
163;0.6015581999999995;2534
164;0.6047750000007;2535
165;0.6077921000005517;2535
166;0.61079940000036;2535
167;0.6138733000007051;2535
168;0.6167336000007708;2535
169;0.6197203000001537;2536
170;0.6227150000004258;2536
171;0.6257270000005519;2536
172;0.628722899999957;2536
173;0.6316323000000921;2536
174;0.6345940999999584;2537
175;0.6375248000003921;2537
176;0.6395558000003803;2537
177;0.6425315000005867;2537
178;0.6455324000007749;2538
179;0.6485434000005625;2538
180;0.6515472000000955;2537
181;0.6545278000003236;2538
182;0.6575638000003892;2538
183;0.6605316000004677;2538
184;0.6635403000000224;2538
185;0.6655373000003237;2539
186;0.6685386000008293;2539
187;0.67153000000053;2538
188;0.6745189000002938;2538
189;0.6765493000002607;2538
190;0.6795396000006804;2538
191;0.6825443000006999;2538
192;0.6856216000005588;2537
193;0.6885365000007369;2537
194;0.6915346000005229;2538
195;0.6945343000006687;2538
196;0.6974787000008291;2537
197;0.6998551000006046;2537
198;0.7027186000004804;2538
199;0.7056992000007085;2538
200;0.7087034000005588;2538
201;0.7116436000005706;2538
202;0.7144547000007151;2537
203;0.7176247000006697;2538
204;0.7206326000004992;2537
205;0.723543800000698;2538
206;0.7265865000008489;2537
207;0.7296722000000955;2538
208;0.7326545000005353;2538
209;0.7356754000002184;2538
210;0.738672299999962;2538
211;0.7417576000007102;2538
212;0.7445797000000312;2538
213;0.7474926000004416;2538
214;0.7507783999999447;2538
215;0.7537841000003027;2539
216;0.7567719000007855;2539
217;0.7597897000005105;2539
218;0.762774900000295;2540
219;0.7657855000006748;2540
220;0.7688013000006322;2540
221;0.7717820000007123;2539
222;0.7745586000000912;2539
223;0.7780290000000605;2539
224;0.7818602000006649;2539
225;0.7860445000005711;2539
226;0.7899479000006977;2539
227;0.7940879000007044;2539
228;0.7981074000008448;2539
229;0.8024340000001757;2539
230;0.8069478000006711;2539
231;0.8114750000004278;2539
232;0.8159043000005113;2539
233;0.8204689000003782;2539
234;0.8239073000004282;2539
235;0.8284668000005695;2539
236;0.8318693000001076;2539
237;0.8364938000004258;2539
238;0.8414781000001312;2539
239;0.8452169000001959;2539
240;0.8488956000001053;2539
241;0.8534404000001814;2540
242;0.8584321000007549;2540
243;0.8634236000007149;2540
244;0.8684680000005756;2540
245;0.8721224000000802;2539
246;0.8764499000008072;2539
247;0.8814440000005561;2539
248;0.8849470000004658;2539
249;0.8894409000004089;2539
250;0.8932426000001215;2539
251;0.8969231000000946;2539
252;0.9008880000001227;2539
253;0.9039743000003;2539
254;0.9068274000001111;2539
255;0.9098169000008056;2539
256;0.912802300000294;2539
257;0.9155921000001399;2539
258;0.9188041000006706;2539
259;0.9216678000002503;2540
260;0.9248107000003074;2540
261;0.9278093000002627;2540
262;0.9308051000007254;2540
263;0.9338176000001113;2540
264;0.9368185000002995;2540
265;0.9398057000007611;2540
266;0.9428133999999773;2540
267;0.9455846000000747;2540
268;0.948417900000095;2539
269;0.9516051000000516;2539
270;0.954776600000514;2539
271;0.9578061000001981;2539
272;0.9607758000001922;2539
273;0.963527900000372;2539
274;0.9664675000003626;2539
275;0.9687805000003209;2539
276;0.9717562000005273;2539
277;0.9747792000007394;2539
278;0.977756500000396;2539
279;0.9807174000006853;2539
280;0.9837631000000329;2538
281;0.986763300000348;2537
282;0.9897580000006201;2537
283;0.992772700000387;2537
284;0.9955906000004688;2537
285;0.998571200000697;2537
286;1.001569200000631;2537
287;1.004561200000353;2537
288;1.007560700000795;2537
289;1.0105063000000882;2537
290;1.0135454999999638;2537
291;1.0158983999999691;2538
292;1.019079800000327;2538
293;1.0231105000002572;2538
294;1.0271505000000616;2538
295;1.0309320000005755;2538
296;1.0340648999999758;2538
297;1.0380367000007027;2539
298;1.0416002000001754;2539
299;1.044986400000198;2539
300;1.048989700000675;2539
301;1.0516655999999784;2539
302;1.05480340000031;2540
303;1.0573802000008072;2540
304;1.060602800000197;2540
305;1.063569500000085;2540
306;1.0669634000005317;2540
307;1.0715452000004007;2540
308;1.0750262000001385;2540
309;1.079520400000547;2540
310;1.0845817000008537;2539
311;1.089323800000784;2539
312;1.093222400000741;2539
313;1.0973590000003242;2539
314;1.1025311000003057;2539
315;1.1075119000006453;2539
316;1.1125525000006746;2539
317;1.1175181000007797;2539
318;1.1224926000004416;2540
319;1.1275544000000082;2539
320;1.1319579000000886;2539
321;1.1362482000004093;2539
322;1.1403125000006185;2540
323;1.144313300000249;2540
324;1.1479126000003816;2540
325;1.1521394999999757;2540
326;1.1562880999999834;2540
327;1.1602460000003703;2540
328;1.1643792000004396;2541
329;1.1680980000001;2541
330;1.1718534000001455;2541
331;1.17638210000041;2541
332;1.1803075000007084;2541
333;1.1838913000001412;2540
334;1.1883743000007598;2539
335;1.192323000000215;2539
336;1.1963191000004372;2539
337;1.200305400000616;2539
338;1.2043359000008422;2539
339;1.2083386000003884;2539
340;1.2123200000005454;2538
341;1.2157214000008025;2539
342;1.2203652000007423;2538
343;1.2243211000004521;2538
344;1.2283161000004839;2539
345;1.2317654000007678;2538
346;1.2363645000004908;2538
347;1.2403545000006488;2538
348;1.2443412000002354;2538
349;1.2479574000008142;2538
350;1.2522589000000153;2538
351;1.2562837000004947;2538
352;1.2603558000000703;2539
353;1.2636819000008472;2539
354;1.268402700000479;2538
355;1.2723501000000397;2539
356;1.2763432000001558;2539
357;1.2803255000007994;2539
358;1.2843597000000955;2539
359;1.28835060000074;2539
360;1.2923434000003908;2539
361;1.2963411000000633;2539
362;1.3003553000007742;2539
363;1.304348100000425;2538
364;1.3084111000007397;2538
365;1.3123701000004075;2538
366;1.3158720999999787;2537
367;1.320377400000325;2537
368;1.3243688000002294;2537
369;1.3283549000007042;2536
370;1.3317847000007532;2536
371;1.3349064000003636;2536
372;1.3394119000004139;2536
373;1.344361100000242;2536
374;1.3479665000004388;2536
375;1.3523459000007279;2536
376;1.3561720000006972;2535
377;1.3603617000007944;2536
378;1.364367800000764;2536
379;1.368279000000257;2536
380;1.3723584000008486;2536
381;1.3758286000002045;2536
382;1.3789165000007415;2536
383;1.3817946000008305;2536
384;1.3864026999999624;2536
385;1.3903508000003058;2536
386;1.3943560000006983;2536
387;1.3977891000004092;2536
388;1.4023939000007886;2536
389;1.406342900000709;2536
390;1.4103402000000642;2536
391;1.4143466000004992;2535
392;1.418300100000124;2536
393;1.4223687000003338;2535
394;1.42635060000066;2535
395;1.4303761000001032;2535
396;1.4343942000004972;2534
397;1.4383595000008427;2534
398;1.4423474000004717;2533
399;1.4463599000000613;2533
400;1.4503576000006433;2533
401;1.454350500000146;2533
402;1.4583485000002838;2533
403;1.4623487000008026;2532
404;1.465933700000278;2532
405;1.4703764000005322;2532
406;1.4738816000008228;2532
407;1.4783712000007654;2531
408;1.4816444000007323;2531
409;1.4851126000003205;2532
410;1.4894113000000289;2531
411;1.4933467000000746;2531
412;1.4973844000005556;2530
413;1.501345399999991;2530
414;1.5053547000006802;2530
415;1.5093510000006063;2530
416;1.5132080000003043;2530
417;1.517390400000295;2529
418;1.5213681000004726;2529
419;1.5253465000005235;2529
420;1.528897600000164;2528
421;1.5333594000003359;2528
422;1.5373532000003252;2528
423;1.5413421000002927;2527
424;1.5450344000000769;2527
425;1.5487841000003755;2526
426;1.5534098000007361;2526
427;1.5573417000005065;2525
428;1.5608781000000818;2525
429;1.564046899999994;2525
430;1.5684106000007887;2525
431;1.5723406000006435;2524
432;1.5760488000005353;2524
433;1.5804063000005044;2523
434;1.5842781999999715;2522
435;1.5880571000006967;2522
436;1.5918578000000707;2522
437;1.5963424999999916;2522
438;1.600285100000292;2521
439;1.6041889000007359;2521
440;1.6078483000001142;2521
441;1.6108597000002192;2521
442;1.6138409000004685;2521
443;1.6168820000002597;2520
444;1.6209990000006655;2520
445;1.623813400000472;2520
446;1.626978500000405;2519
447;1.6307636000001366;2518
448;1.6339748000000327;2518
449;1.6379982000007658;2517
450;1.6419454000006226;2517
451;1.6459987000007459;2517
452;1.6488370000006398;2516
453;1.6529762000000119;2516
454;1.6558027999999467;2515
455;1.659001700000772;2515
456;1.6630006000004869;2514
457;1.666990500000793;2514
458;1.6706694000004063;2513
459;1.6739905000004;2513
460;1.6779998000001797;2513
461;1.681683000000703;2512
462;1.685829900000499;2511
463;1.6889651000001322;2510
464;1.6929729000003135;2510
465;1.6970406000000366;2509
466;1.7009680000001026;2509
467;1.7036376000005475;2509
468;1.7068202000000383;2508
469;1.7098240000004807;2508
470;1.7129983000004358;2507
471;1.7173255000006975;2507
472;1.7213386000003084;2506
473;1.7253318000002764;2506
474;1.7293743000000177;2505
475;1.7330292000006011;2505
476;1.7374052000004667;2504
477;1.741359200000261;2503
478;1.7453623999999763;2502
479;1.7488263000004736;2501
480;1.7518651000000318;2500
481;1.7563960000006773;2499
482;1.7613758000006783;2499
483;1.7647818000004918;2498
484;1.7678860000005443;2498
485;1.7723866000005728;2498
486;1.7763453000006848;2497
487;1.7804358000003049;2496
488;1.7843669000003501;2495
489;1.788345599999957;2494
490;1.7923752000006061;2493
491;1.796006400000806;2492
492;1.7988745000002382;2492
493;1.8018928999999844;2492
494;1.806384400000752;2492
495;1.8103797000003397;2491
496;1.8143794000006892;2491
497;1.8183817000008275;2490
498;1.8223498000006657;2489
499;1.8263852000000043;2489
500;1.83097700000053;2488
501;1.8354058000004443;2486
502;1.8393831000003047;2486
503;1.8428069000001415;2485
504;1.8458448000001226;2484
505;1.848874600000272;2483
506;1.8519814999999653;2483
507;1.854878500000268;2482
508;1.8579679000004035;2482
509;1.8607926000004227;2481
510;1.8638102000004437;2481
511;1.8669718999999532;2480
512;1.8710096000004341;2479
513;1.8747187000008125;2478
514;1.878000300000167;2476
515;1.8818411000002015;2476
516;1.8849751000007018;2475
517;1.8890016000004834;2474
518;1.8928058999999848;2473
519;1.8958572000001368;2472
520;1.8990214000004926;2471
521;1.9029881000005844;2471
522;1.9070071000005555;2470
523;1.9098291000000245;2469
524;1.9130056000003606;2468
525;1.917003200000181;2468
526;1.921046500000557;2467
527;1.9254303000006985;2467
528;1.930373099999997;2465
529;1.9343812000006437;2465
530;1.9381184000003486;2464
531;1.9422848000003796;2463
532;1.9463705000007394;2462
533;1.9502784000005704;2461
534;1.953790000000481;2460
535;1.9567911000003733;2460
536;1.9613959000007526;2459
537;1.9648067000007359;2458
538;1.9678774000003614;2458
539;1.9708205000006274;2457
540;1.9738134000008358;2456
541;1.9768346000000747;2455
542;1.9798682000000554;2454
543;1.9830117999999857;2453
544;1.9872222000003603;2452
545;1.9913984000004348;2451
546;1.995363100000759;2451
547;1.9988878000003751;2450
548;2.001851400000305;2449
549;2.0048922000005405;2449
550;2.009285300000556;2448
551;2.0133927000006224;2447
552;2.016932600000473;2446
553;2.0214252000005217;2446
554;2.0253458000006503;2444
555;2.029357600000367;2443
556;2.032811500000207;2442
557;2.0358799000005092;2441
558;2.038847600000736;2441
559;2.0418590000008408;2440
560;2.0449898000006215;2440
561;2.0477918000005957;2439
562;2.0509913000005326;2439
563;2.0550042000004396;2438
564;2.058964900000319;2437
565;2.0630012000001443;2437
566;2.0669914000000063;2435
567;2.071000000000822;2433
568;2.0750040000002627;2432
569;2.07900090000021;2431
570;2.0829985000000306;2431
571;2.087009000000762;2429
572;2.091005100000075;2428
573;2.094994300000508;2427
574;2.0989985000005618;2426
575;2.103003600000193;2425
576;2.1070035000002463;2425
577;2.110983700000361;2423
578;2.113757300000543;2423
579;2.1170124000000214;2422
580;2.121000500000264;2421
581;2.1249325000007957;2420
582;2.1277964000000793;2420
583;2.130397300000368;2420
584;2.134143000000222;2419
585;2.1381692000004477;2418
586;2.141608100000667;2417
587;2.1450149000002057;2417
588;2.1490647000000536;2416
589;2.1530686000005517;2415
590;2.1566413000000466;2414
591;2.15989350000018;2413
592;2.1628576000002795;2412
593;2.1658151999999973;2411
594;2.1688317000007373;2410
595;2.1717741000002206;2410
596;2.1746795000008206;2409
597;2.1778290000002016;2407
598;2.1805685000008452;2407
599;2.183862500000032;2406
600;2.1868716000008135;2405
601;2.1896598000002996;2404
602;2.1928609000005963;2404
603;2.195593000000372;2403
604;2.1985978000002433;2402
605;2.2016247000001385;2401
606;2.2046179000008124;2400
607;2.2076022999999623;2399
608;2.210604400000193;2398
609;2.213758300000336;2398
610;2.218223300000318;2397
611;2.2216485000008106;2396
612;2.2246075000002747;2395
613;2.2276316000006773;2395
614;2.230523200000789;2394
615;2.233863100000235;2393
616;2.236865100000614;2393
617;2.2398449000002074;2393
618;2.2428662000002078;2393
619;2.2458688000006077;2392
620;2.2488579000000755;2391
621;2.251691000000392;2390
622;2.254868100000749;2390
623;2.257860400000027;2389
624;2.2606359999999768;2388
625;2.263749600000665;2387
626;2.2681932000004963;2386
627;2.27225560000079;2385
628;2.276084200000696;2384
629;2.2804347999999663;2383
630;2.2841255000003002;2382
631;2.2883980000005977;2381
632;2.2931644000000233;2379
633;2.2974370000001727;2378
634;2.3024662000007083;2377
635;2.307426200000009;2376
636;2.311408200000187;2375
637;2.3158849000001283;2374
638;2.318895700000212;2373
639;2.323355000000447;2372
640;2.3273911000005683;2371
641;2.3319475000007515;2371
642;2.336455300000125;2370
643;2.341389500000332;2369
644;2.3450786000003063;2368
645;2.3487961000000723;2368
646;2.3534541000008176;2367
647;2.3584118000007948;2367
648;2.3628772000001845;2367
649;2.366062800000691;2366
650;2.3704365000003236;2365
651;2.3741702000006626;2365
652;2.3784198000003016;2363
653;2.381881500000418;2363
654;2.3849199000005683;2362
655;2.389415100000406;2361
656;2.3954639000003226;2360
657;2.400444200000493;2359
658;2.405427800000325;2358
659;2.4092121000003317;2357
660;2.4133979000007457;2357
661;2.417403000000377;2356
662;2.4214041000004727;2355
663;2.4252826000001733;2355
664;2.4294383000005837;2354
665;2.4334309000005305;2352
666;2.4373896000006425;2352
667;2.4420000000000073;2351
668;2.444921900000736;2350
669;2.4489118000001326;2350
670;2.4533992000006037;2350
671;2.45684220000021;2350
672;2.4598263000007137;2349
673;2.4627415000004476;2348
674;2.4656605000000127;2348
675;2.4686944000004587;2347
676;2.471584200000507;2347
677;2.474574500000017;2347
678;2.4775289000008343;2346
679;2.480696900000112;2345
680;2.4839915000002293;2345
681;2.486589200000708;2344
682;2.4898723000005702;2344
683;2.4928686000002926;2343
684;2.4958589000007123;2343
685;2.4988571000003503;2343
686;2.5018183000001954;2342
687;2.504800400000022;2342
688;2.5078479000003426;2342
689;2.510841199999959;2341
690;2.51375680000001;2341
691;2.5168297000000166;2341
692;2.5198285000005853;2341
693;2.5228288000007524;2340
694;2.525832799999989;2340
695;2.528831900000114;2340
696;2.5318168000003425;2340
697;2.534833200000321;2340
698;2.5378292000004876;2340
699;2.5408430000006774;2340
700;2.543837000000167;2340
701;2.5467004000001907;2340
702;2.5485459999999875;2340
703;2.551414300000033;2339
704;2.5536050000000614;2339
705;2.556593000000248;2339
706;2.559596000000056;2339
707;2.5625830000008136;2339
708;2.5661282999999457;2339
709;2.5701865000000907;2338
710;2.5741766000001007;2338
711;2.5780680000007123;2338
712;2.5817374000007476;2338
713;2.5850185000008423;2338
714;2.587853500000165;2338
715;2.590843400000267;2338
716;2.5938562000001184;2338
717;2.5966754000000947;2338
718;2.599593000000823;2337
719;2.6026321000008465;2337
