;time;amplitude
0;0.0031345999996119644;2297
1;0.007076600000800681;2296
2;0.011052699999709148;2295
3;0.014711699999679695;2294
4;0.018162500000471482;2293
5;0.022282800000539282;2292
6;0.025219299999662326;2292
7;0.029035699999440112;2291
8;0.03307110000059765;2289
9;0.035891699999410775;2289
10;0.0388081000000966;2288
11;0.0418454999999085;2288
12;0.044737399999576155;2287
13;0.047822599999562954;2286
14;0.05232350000005681;2286
15;0.05676149999999325;2285
16;0.06121600000005856;2285
17;0.06480700000065553;2284
18;0.06930169999941427;2284
19;0.07290509999984351;2283
20;0.07728570000108448;2283
21;0.08108139999967534;2283
22;0.08482120000007853;2283
23;0.08923300000060408;2284
24;0.09270409999953699;2283
25;0.09601909999946656;2283
26;0.09897710000041116;2283
27;0.10197139999945648;2283
28;0.10499089999939315;2283
29;0.10799559999941266;2282
30;0.11097280000103638;2282
31;0.11410170000090147;2282
32;0.11763740000060352;2282
33;0.12122769999950833;2282
34;0.12521620000006806;2282
35;0.12921430000096734;2281
36;0.13329139999950712;2281
37;0.1372577000001911;2281
38;0.14122719999977562;2281
39;0.14527780000025814;2280
40;0.1492072000000917;2280
41;0.15284520000022894;2279
42;0.15581659999952535;2278
43;0.1587517999996635;2278
44;0.16168649999963236;2278
45;0.16453630000069097;2278
46;0.16781450000053155;2277
47;0.17084179999983462;2278
48;0.17386620000070252;2278
49;0.17681590000029246;2278
50;0.17987949999951525;2278
51;0.1829025000006368;2278
52;0.18585800000073505;2278
53;0.1888557000002038;2278
54;0.192239600000903;2278
55;0.19511249999959546;2278
56;0.19908829999985755;2278
57;0.20313809999970545;2278
58;0.20715630000086094;2277
59;0.2108570000000327;2277
60;0.2138347000000067;2278
61;0.21662690000084694;2278
62;0.21962270000040007;2278
63;0.2226226000002498;2278
64;0.22588589999941178;2278
65;0.22897759999978007;2279
66;0.23169720000078087;2279
67;0.2348775000009482;2279
68;0.23785090000092168;2279
69;0.2409004000001005;2280
70;0.24386100000083388;2280
71;0.24684510000042792;2280
72;0.2495677999995678;2280
73;0.2531892999995762;2280
74;0.2566960000003746;2280
75;0.2597415000000183;2281
76;0.26285680000000866;2281
77;0.26576419999946665;2281
78;0.26876590000028955;2281
79;0.27177520000077493;2282
80;0.27488260000063747;2282
81;0.27787010000065493;2282
82;0.2807511999999406;2282
83;0.2840436000005866;2283
84;0.28808349999962957;2283
85;0.29203830000005837;2284
86;0.29611970000041765;2284
87;0.30015480000110983;2284
88;0.3030925000002753;2285
89;0.3066588000001502;2286
90;0.30995550000079675;2286
91;0.3141192000002775;2286
92;0.3181165999994846;2287
93;0.32199580000087735;2287
94;0.32567329999983485;2287
95;0.3286186000004818;2288
96;0.3317968999999721;2288
97;0.3348267000001215;2288
98;0.33767769999940356;2288
99;0.34071270000094955;2289
100;0.34350310000081663;2290
101;0.3464316999998118;2290
102;0.34919210000043677;2291
103;0.3527864999996382;2292
104;0.3561838000005082;2293
105;0.3601034000002983;2293
106;0.3641659000004438;2294
107;0.3671718999994482;2294
108;0.3708757999993395;2295
109;0.3737046999995073;2296
110;0.3768022000003839;2296
111;0.3798114000001078;2297
112;0.3828692000006413;2297
113;0.3858319000009942;2298
114;0.3887728999998217;2298
115;0.391517300000487;2298
116;0.39355910000085714;2299
117;0.3954510000003211;2299
118;0.39746740000009595;2300
119;0.3994354000005842;2301
120;0.4017966000010347;2301
121;0.4046159000008629;2302
122;0.4075780000002851;2303
123;0.41078190000007453;2303
124;0.41375820000030217;2304
125;0.4165191000010964;2304
126;0.4196432000007917;2305
127;0.4214279000007082;2305
128;0.4238631999996869;2305
129;0.4268056000000797;2306
130;0.42980979999992996;2306
131;0.43280679999952554;2307
132;0.4354801999998017;2308
133;0.4388089999993099;2309
134;0.4418801000010717;2309
135;0.4447352999995928;2310
136;0.4475218000006862;2311
137;0.45066940000106115;2312
138;0.4537056000008306;2313
139;0.45670460000110324;2313
140;0.4596858999993856;2314
141;0.4626943000002939;2315
142;0.4657905000003666;2316
143;0.4685215000008611;2318
144;0.4707185999996;2318
145;0.4737131000001682;2318
146;0.4767241000008653;2319
147;0.4797266999994463;2320
148;0.48272980000001553;2321
149;0.4857038000009197;2322
150;0.4886624999999185;2323
151;0.4916873000001942;2323
152;0.4946672000005492;2324
153;0.4975207000006776;2325
154;0.500732300000891;2326
155;0.5035394999995333;2327
156;0.5066881000002468;2327
157;0.5096902000004775;2328
158;0.5127329999995709;2329
159;0.5156182999999146;2329
160;0.5185591999997996;2330
161;0.521474400000443;2331
162;0.5246520000000601;2332
163;0.527657900000122;2333
164;0.5305991999994149;2334
165;0.5336342000009608;2335
166;0.5367052000001422;2336
167;0.5396976000010909;2336
168;0.5427149000006466;2337
169;0.545752399999401;2338
170;0.5485404000010021;2339
171;0.5520458000009967;2340
172;0.5559754000005341;2341
173;0.5600212999997893;2342
174;0.5625975000002654;2344
175;0.5659825000002456;2345
176;0.5689013000010164;2346
177;0.5719439000004058;2347
178;0.5747372000005271;2348
179;0.5777216000005865;2349
180;0.580864699999438;2350
181;0.5837312000003294;2351
182;0.5867391000010684;2352
183;0.5897148000003654;2353
184;0.5927458999994997;2354
185;0.5957705000000715;2355
186;0.5987473999994108;2355
187;0.6017504000010376;2357
188;0.6049055000003136;2358
189;0.607861899999989;2358
190;0.6108413000001747;2360
191;0.6139789000008022;2360
192;0.6166159000003972;2361
193;0.619636299999911;2362
194;0.6225410999995802;2364
195;0.6244447999997647;2364
196;0.6265679999996792;2365
197;0.6295534000000771;2366
198;0.6315415000008215;2366
199;0.6351957999995648;2367
200;0.6389708999995491;2368
201;0.6419329000000289;2369
202;0.6462042000002839;2370
203;0.6485413999998855;2371
204;0.6520822000002227;2372
205;0.6560319000000163;2374
206;0.6600374000008742;2375
207;0.6641638000000967;2377
208;0.6679559999993216;2379
209;0.6709174999996321;2380
210;0.6748164000000543;2381
211;0.6779781000004732;2382
212;0.6808075000008103;2384
213;0.6840738999999303;2385
214;0.6880316999995557;2386
215;0.6910514000010153;2387
216;0.6935864999995829;2389
217;0.6968348000009428;2390
218;0.6998265000001993;2391
219;0.702902200000608;2392
220;0.7058195999998134;2393
221;0.7085275999997975;2394
222;0.7118277999998099;2396
223;0.7144795999993221;2397
224;0.7177104000002146;2398
225;0.7205651000003854;2399
226;0.7237390999998752;2400
227;0.726784200000111;2401
228;0.7297563000010996;2403
229;0.7327874000002339;2403
230;0.735792900000888;2404
231;0.7387474000006478;2405
232;0.7418467000006785;2406
233;0.7448581000007835;2408
234;0.7475398000005953;2409
235;0.7508713000006537;2410
236;0.7537929000009171;2411
237;0.7568198999997549;2413
238;0.7598763999994844;2413
239;0.7628509000005579;2415
240;0.7662228999997751;2416
241;0.7697521000009147;2417
242;0.7730191000009654;2418
243;0.7759157000000414;2420
244;0.7800781999994797;2421
245;0.7826523000003363;2422
246;0.7856520000004821;2423
247;0.7888885000011214;2424
248;0.7916447000006883;2426
249;0.7946224000006623;2427
250;0.7976701999996294;2428
251;0.800823900000978;2429
252;0.8036174999997456;2431
253;0.80667110000104;2432
254;0.8096031000004587;2433
255;0.8126883999993879;2434
256;0.8156579999995301;2435
257;0.8187706000007893;2436
258;0.8217179000002943;2437
259;0.8250265999995463;2439
260;0.8287753000004159;2440
261;0.8325686000007408;2442
262;0.8355594000004203;2443
263;0.8375135000005685;2444
264;0.839440800000375;2444
265;0.8417260999995051;2445
266;0.8447630999999092;2446
267;0.8475348000010854;2447
268;0.8507485999998607;2448
269;0.8537773999996716;2449
270;0.8567753999996057;2451
271;0.8597745999995823;2452
272;0.8625969000004261;2454
273;0.8657645000002958;2455
274;0.8686147999997047;2456
275;0.8716132000008656;2457
276;0.8748092000005272;2458
277;0.8777676000008796;2460
278;0.8806086000004143;2461
279;0.8837712000004103;2462
280;0.8867100000006758;2463
281;0.8897601999997278;2464
282;0.8927194999996573;2465
283;0.8957135000000562;2467
284;0.8987207999998645;2467
285;0.9017139000006864;2469
286;0.9046921999997721;2470
287;0.9077651000006881;2471
288;0.9107655000007071;2472
289;0.9137473000009777;2473
290;0.9167663000007451;2474
291;0.9197430000003806;2476
292;0.9227541000000201;2477
293;0.9257300000008399;2478
294;0.9287382000002253;2480
295;0.9315824000004795;2481
296;0.9345788000009634;2481
297;0.9375505000007252;2483
298;0.9395425000002433;2484
299;0.9427028999998583;2485
300;0.9458525999998528;2486
301;0.9486907999998948;2488
302;0.9514944000002288;2489
303;0.9545928000006825;2490
304;0.9575884000005317;2491
305;0.9596048000003066;2492
306;0.9626544000002468;2493
307;0.9659977999999683;2495
308;0.9686447999993106;2496
309;0.9717304000005242;2497
310;0.9748302000007243;2499
311;0.9777532999996765;2500
312;0.9806214000000182;2501
313;0.9837882000010723;2502
314;0.9872111999993649;2503
315;0.9914924999993673;2504
316;0.9951006000010238;2505
317;0.9991601000001538;2506
318;1.0032721999996284;2508
319;1.0072137000006478;2509
320;1.0115303000002314;2510
321;1.015987500000847;2512
322;1.018755200000669;2513
323;1.0217704000006052;2513
324;1.0248618999994505;2514
325;1.0292635000005248;2515
326;1.0331796999998915;2517
327;1.0372631000009278;2518
328;1.0412405999995826;2519
329;1.046284399999422;2521
330;1.0502092000006087;2522
331;1.0539551000001666;2523
332;1.056744900000922;2525
333;1.0599428000004991;2526
334;1.0643724000001384;2527
335;1.0681965000003402;2529
336;1.0721687999994174;2530
337;1.0751390000004903;2531
338;1.0791781999996601;2532
339;1.0831656999998813;2533
340;1.0859531000005518;2534
341;1.0891570000003412;2535
342;1.0919190000004164;2536
343;1.0962395999995351;2537
344;1.0990280999994866;2538
345;1.1028385999998136;2539
346;1.1059504999993806;2541
347;1.1102097000002686;2541
348;1.1142577999999048;2543
349;1.1180261999998038;2544
350;1.1207011999995302;2545
351;1.1239987999997538;2546
352;1.1281641000005038;2547
353;1.1316461999995227;2548
354;1.1351577999994333;2549
355;1.1380162999994354;2550
356;1.1422256999994715;2551
357;1.1459315000010974;2552
358;1.1500221000005695;2553
359;1.1531402000000526;2554
360;1.157180000000153;2555
361;1.1611546999993152;2556
362;1.1647460000003775;2557
363;1.169282299999395;2558
364;1.1726760000001377;2559
365;1.175576199999341;2559
366;1.178703100000348;2560
367;1.1817594999993162;2560
368;1.1851513000001432;2561
369;1.1879908999999316;2562
370;1.1921992999996291;2563
371;1.1962703999997757;2564
372;1.1985789999998815;2564
373;1.2021445000009408;2565
374;1.2062028000000282;2565
375;1.2100597999997262;2566
376;1.2143269999996846;2567
377;1.2180607999998756;2567
378;1.222043699999631;2567
379;1.2258266000008007;2568
380;1.2289562999994814;2569
381;1.233208100000411;2569
382;1.2371944000005897;2570
383;1.2407937999996648;2570
384;1.2437915000009525;2571
385;1.2468112999995355;2572
386;1.24996210000063;2572
387;1.2542857999997068;2573
388;1.2586628999997629;2574
389;1.2622291999996378;2574
390;1.2662663999999495;2575
391;1.2701682000006258;2575
392;1.2731493000010232;2576
393;1.2771859000004042;2576
394;1.2808633999993617;2576
395;1.2852179000001343;2577
396;1.287628100000802;2577
397;1.2907042000006186;2578
398;1.29368439999962;2579
399;1.297395300000062;2579
400;1.3012412000007316;2579
401;1.3048877000001085;2579
402;1.3092515000007552;2580
403;1.313165300000037;2580
404;1.3168387000005168;2580
405;1.319699199999377;2580
406;1.3227153000007092;2580
407;1.3261904999999388;2580
408;1.3298852999996598;2580
409;1.3325963000006595;2580
410;1.3356782000009844;2581
411;1.338629400001082;2581
412;1.3418861999998626;2581
413;1.3462170000002516;2581
414;1.3486936999997852;2581
415;1.3517301000010775;2581
416;1.3545804000004864;2581
417;1.3579453000002104;2582
418;1.3622580000010203;2582
419;1.3655871000009938;2582
420;1.3692057999996905;2582
421;1.3731666000003315;2583
422;1.3771548999993684;2583
423;1.380148600001121;2582
424;1.3826606000002357;2583
425;1.3861759000010352;2583
426;1.389146499999697;2584
427;1.3932366000008187;2583
428;1.3970563000002585;2583
429;1.399930999999924;2584
430;1.4029074999998556;2584
431;1.4057630000006611;2583
432;1.4087569000002986;2583
433;1.411718800000017;2583
434;1.4147272999998677;2583
435;1.4177192999995896;2583
436;1.4211685999998735;2583
437;1.4248669000007794;2583
438;1.4292029999996885;2582
439;1.4332272000010562;2581
440;1.4368983000003936;2581
441;1.4412083999995957;2580
442;1.4451752999993914;2580
443;1.4489723000006052;2579
444;1.4532211999994615;2579
445;1.4572267000003194;2579
446;1.4612381999995705;2578
447;1.4647769000002882;2578
448;1.4682475999998132;2578
449;1.4712369000008039;2578
450;1.4752662999999302;2578
451;1.4789913999993587;2578
452;1.4832833000000392;2578
453;1.4871586999997817;2577
454;1.4912426000009873;2577
455;1.4952544000007038;2577
456;1.4992832000007184;2576
457;1.5033163000007335;2576
458;1.506940499999473;2576
459;1.5098489000010886;2575
460;1.513756199999989;2575
461;1.5166953999996622;2574
462;1.5197647000004508;2574
463;1.5227847000005568;2573
464;1.5255938999998762;2573
465;1.5285679999997228;2572
466;1.5316973999997572;2572
467;1.5346146000010776;2571
468;1.5376849999993283;2570
469;1.5406084000005649;2570
470;1.542460000000574;2569
471;1.5445385000002716;2568
472;1.5464926000004198;2568
473;1.5485236999993504;2568
474;1.5506117000004451;2567
475;1.5538281999997707;2567
476;1.556422499999826;2565
477;1.5585960000007617;2566
478;1.560507600001074;2565
479;1.5625675999999658;2565
480;1.5645222000002832;2565
481;1.566571200000908;2564
482;1.5685310999997455;2564
483;1.570579600000201;2564
484;1.572495100001106;2564
485;1.5744960000010906;2564
486;1.5765823000001546;2563
487;1.578448500000377;2563
488;1.5803632000006473;2562
489;1.582439499999964;2562
490;1.5844930000002933;2561
491;1.5864913999994315;2561
492;1.5883721000009245;2561
493;1.5916286000010587;2560
494;1.5946291000000201;2560
495;1.5966385000010632;2559
496;1.5995548000009876;2558
497;1.602611500000421;2558
498;1.6056563000001915;2557
499;1.6075632000010955;2557
500;1.6096211999993102;2557
501;1.6115203999997902;2556
502;1.6135556999997789;2556
503;1.61550890000035;2556
504;1.6174857000005431;2556
505;1.6195568000002822;2555
506;1.6218205999994098;2554
507;1.6246931000005134;2554
508;1.6277434000003268;2554
509;1.6305412000001525;2553
510;1.6338046000000759;2552
511;1.6365951000007044;2551
512;1.639915600000677;2550
513;1.6429060000009486;2549
514;1.6457718000001478;2548
515;1.648896099999547;2547
516;1.6519592000004195;2546
517;1.6549806000002718;2546
518;1.6579658000009658;2545
519;1.6608262000008835;2544
520;1.6639410000007047;2543
521;1.6668040999993536;2542
522;1.6697500000009313;2542
523;1.672769500000868;2541
524;1.6758183000001736;2540
525;1.6785574000005;2540
526;1.6805480000002717;2540
527;1.6837008000002243;2539
528;1.6867070000007516;2538
529;1.689745199999379;2537
530;1.6926531000008254;2537
531;1.6956537000005483;2536
532;1.6987174000005325;2535
533;1.7016134999994392;2535
534;1.7048214000005828;2534
535;1.7078961999995954;2533
536;1.710558900000251;2533
537;1.7136322999995173;2532
538;1.716909200000373;2531
539;1.7198595000008936;2530
540;1.7228133000007801;2530
541;1.7257776000005833;2529
542;1.7287787000004755;2529
543;1.7318035000007512;2528
544;1.7347915999998804;2528
545;1.7378226000000723;2527
546;1.740827999999965;2526
547;1.7435022000008757;2525
548;1.74557730000015;2525
549;1.7486621999996714;2524
550;1.7516912000010052;2523
551;1.754742000000988;2522
552;1.7578888999996707;2521
553;1.7608760000002803;2520
554;1.763713700000153;2520
555;1.7668843000010384;2519
556;1.7697151000011218;2518
557;1.772885700000188;2517
558;1.775862300000881;2516
559;1.7788677000007738;2515
560;1.7818903000006685;2514
561;1.784535799999503;2513
562;1.7878633000000264;2512
563;1.7908332999995764;2511
564;1.793850600000951;2511
565;1.7968567999996594;2509
566;1.79953469999964;2509
567;1.8028162000009615;2507
568;1.8056832000002032;2506
569;1.8085905999996612;2505
570;1.8118264999993698;2504
571;1.814677300000767;2503
572;1.8178477000001294;2502
573;1.8208673000008275;2501
574;1.823866900000212;2500
575;1.8265456999997696;2499
576;1.8297187999996822;2499
577;1.8335619000008592;2497
578;1.8354782000005798;2496
579;1.8377182000003813;2495
580;1.8409890000002633;2494
581;1.8439987000001565;2493
582;1.8466306000009354;2492
583;1.8497542000004614;2491
584;1.8527553000003536;2490
585;1.855753600000753;2488
586;1.8587924000003113;2487
587;1.861797800000204;2486
588;1.8647471000003861;2485
589;1.8677492000006168;2485
590;1.8707684000000881;2484
591;1.873741900000823;2483
592;1.8767323000010947;2481
593;1.8797374999994645;2480
594;1.882759600001009;2479
595;1.8856111999994027;2478
596;1.8886653999998089;2477
597;1.892178000000058;2476
598;1.8962100999997347;2474
599;1.9003281999994215;2473
600;1.904197199999544;2472
601;1.9093028000006598;2471
602;1.9131268000001;2469
603;1.9175451999999495;2468
604;1.9211539999996603;2466
605;1.9248858999999356;2465
606;1.928075899999385;2463
607;1.9317988000002515;2462
608;1.9350278000001708;2461
609;1.9379532000002655;2459
610;1.941013199999361;2458
611;1.9440646000002744;2457
612;1.9478354000002582;2456
613;1.9509938000010152;2455
614;1.9550402000004397;2453
615;1.9587969000003795;2451
616;1.9616478999996616;2450
617;1.9646928000001935;2449
618;1.9675167000004876;2448
619;1.971095900000364;2447
620;1.9750160000003234;2445
621;1.9790907999995397;2443
622;1.9826919000006455;2441
623;1.9860599000003276;2439
624;1.9900474000005488;2438
625;1.9941393999997672;2437
626;1.9978329999994457;2436
627;2.0010065999995277;2434
628;2.0050661000004766;2433
629;2.009108500000366;2432
630;2.011921400000574;2430
631;2.0157435000000987;2429
632;2.018670999999813;2427
633;2.021623799999361;2427
634;2.024615399999675;2425
635;2.0275713999999425;2424
636;2.030677900000228;2423
637;2.0340126999999484;2422
638;2.03690749999987;2420
639;2.039895100000649;2419
640;2.04296179999983;2418
641;2.0471044999994774;2417
642;2.0497592000010627;2415
643;2.052926700000171;2414
644;2.055937499999345;2413
645;2.0589949999994133;2411
646;2.061818600001061;2410
647;2.0647578000007343;2409
648;2.067874899999879;2407
649;2.070815000000948;2406
650;2.073937200000728;2405
651;2.0768834999998944;2404
652;2.07986019999953;2403
653;2.082674600000246;2402
654;2.0857971999994334;2400
655;2.0889179999994667;2399
656;2.0918837999997777;2398
657;2.0949053000003914;2397
658;2.097740299999714;2396
659;2.10088259999975;2395
660;2.1038877999999386;2394
661;2.1070039000005636;2393
662;2.1098684999997204;2392
663;2.112848500000837;2391
664;2.11596660000032;2390
665;2.1188492000001133;2389
666;2.1216079000005266;2387
667;2.1248734000000695;2386
668;2.12786640000013;2384
669;2.1306098000004567;2384
670;2.1339695999995456;2383
671;2.136812300001111;2381
672;2.1398229000005813;2380
673;2.142920199999935;2379
674;2.145843300000706;2378
675;2.1486404000006587;2377
676;2.151687600000514;2376
677;2.1546737999997276;2374
678;2.15767009999945;2373
679;2.160685299999386;2372
680;2.1635466999996424;2371
681;2.1665363000010984;2369
682;2.1689495999999053;2368
683;2.1718921000010596;2367
684;2.1748563000001013;2365
685;2.1778457000000344;2364
686;2.1805648999998084;2363
687;2.1839194999993197;2361
688;2.1868723000006867;2360
689;2.1898519999995187;2359
690;2.1928821000001335;2358
691;2.1958685999998124;2357
692;2.1989551999995456;2356
693;2.201855900000737;2356
694;2.2048517000002903;2355
695;2.2079529000002367;2354
696;2.210854400000244;2353
697;2.213589500001035;2352
698;2.2168793000000733;2351
699;2.21985610000047;2350
700;2.222867500000575;2349
701;2.225855500000762;2347
702;2.228863700000147;2346
703;2.231868900000336;2345
704;2.2349618000007467;2344
705;2.2378330000010465;2344
706;2.240840099999332;2343
707;2.243841200001043;2342
708;2.2468717000010656;2341
709;2.249862700000449;2340
710;2.2529592999999295;2339
711;2.2559577000010904;2338
712;2.2589475000004313;2337
713;2.261849500000608;2336
714;2.2649581999994552;2336
715;2.267858900000647;2334
716;2.2709482000009302;2333
717;2.2736113000009937;2332
718;2.2768756999994366;2331
