;time;amplitude
0;0.0033046000007743714;2465
1;0.0063253000007534865;2465
2;0.009609799999452662;2465
3;0.013684899999134359;2465
4;0.01629549999961455;2465
5;0.020762399999512127;2465
6;0.024679100000867038;2464
7;0.0288113999995403;2464
8;0.03234340000017255;2464
9;0.03666479999992589;2464
10;0.0407878999994864;2464
11;0.04481540000051609;2464
12;0.04827269999987038;2463
13;0.052738300000783056;2463
14;0.05677850000029139;2463
15;0.06081280000034894;2463
16;0.06417189999956463;2463
17;0.06781000000046333;2463
18;0.0716878999992332;2462
19;0.07563649999974587;2462
20;0.079819900000075;2462
21;0.08228840000083437;2461
22;0.08676419999937934;2461
23;0.09069339999950898;2461
24;0.09481249999953434;2460
25;0.09830150000016147;2460
26;0.10277259999929811;2459
27;0.1067218000007415;2459
28;0.11066079999909562;2458
29;0.11432910000075935;2458
30;0.11775610000040615;2458
31;0.12165509999977075;2457
32;0.12580270000034943;2457
33;0.12979489999997895;2457
34;0.13230010000006587;2456
35;0.13563590000012482;2456
36;0.13976290000027802;2455
37;0.14360689999921306;2455
38;0.1471638000002713;2455
39;0.15073099999972328;2454
40;0.15464330000031623;2454
41;0.15878349999911734;2454
42;0.16268590000072436;2453
43;0.16527270000005956;2453
44;0.16860090000045602;2452
45;0.17264199999954144;2452
46;0.17673459999969054;2451
47;0.18036190000020724;2451
48;0.1837560999993002;2450
49;0.1876814999995986;2450
50;0.1918136999993294;2450
51;0.1957258999991609;2449
52;0.19827110000005632;2448
53;0.20156630000019504;2448
54;0.20576160000018717;2448
55;0.2096423999992112;2447
56;0.21374780000041937;2446
57;0.21656810000058613;2446
58;0.22072379999917757;2445
59;0.22465630000078818;2444
60;0.2287820000001375;2444
61;0.23113659999944502;2443
62;0.23427749999973457;2443
63;0.23776849999921978;2442
64;0.241600200000903;2442
65;0.2457362999994075;2441
66;0.24931119999928342;2440
67;0.2525354999997944;2440
68;0.2566996999994444;2440
69;0.2606242999991082;2439
70;0.26435569999921427;2438
71;0.26775959999940824;2437
72;0.27164300000004005;2436
73;0.27578820000053383;2436
74;0.2796259000006103;2435
75;0.2823026000005484;2435
76;0.28557589999945776;2434
77;0.2897842000002129;2434
78;0.29370399999970687;2433
79;0.29723530000046594;2432
80;0.30024969999976747;2432
81;0.30320639999990817;2431
82;0.3062250999992102;2430
83;0.3091760000006616;2430
84;0.3122146999994584;2429
85;0.3151754999998957;2428
86;0.3181519000008848;2428
87;0.3217373999996198;2428
88;0.325691399999414;2426
89;0.32973669999955746;2426
90;0.332549900000231;2425
91;0.3354135999998107;2424
92;0.3382731000001513;2424
93;0.34113500000057684;2423
94;0.3443365000002814;2423
95;0.34701160000076925;2422
96;0.3491713000003074;2421
97;0.35247270000036224;2421
98;0.3553174000007857;2420
99;0.35807539999950677;2419
100;0.36136160000023665;2419
101;0.36426399999982095;2419
102;0.3672991000003094;2418
103;0.3702811000002839;2417
104;0.37336949999917124;2417
105;0.37630560000070545;2416
106;0.37915330000032554;2415
107;0.3822583000001032;2415
108;0.3852881000002526;2414
109;0.38832840000031865;2413
110;0.39131020000058925;2412
111;0.394128300000375;2412
112;0.39700059999995574;2411
113;0.39913979999982985;2411
114;0.40114259999973;2411
115;0.40415349999966566;2411
116;0.4071918000008736;2411
117;0.41014329999961774;2410
118;0.413141999999425;2410
119;0.4162111999994522;2410
120;0.4181179000006523;2409
121;0.42009669999970356;2409
122;0.4233163000008062;2409
123;0.42625179999959073;2408
124;0.42924739999943995;2408
125;0.4313306999993074;2407
126;0.43412849999913306;2407
127;0.4360374999996566;2406
128;0.4380686999993486;2405
129;0.4412408999996842;2405
130;0.4442813000005117;2405
131;0.447193399999378;2405
132;0.45015690000036557;2405
133;0.45195109999986016;2405
134;0.454030299999431;2405
135;0.4560763000008592;2405
136;0.4580956999998307;2404
137;0.4600427999994281;2404
138;0.46210729999984324;2404
139;0.46430680000048596;2404
140;0.46595909999996366;2404
141;0.4682713000001968;2403
142;0.4712249999993219;2403
143;0.4731255000006058;2402
144;0.47514330000012706;2402
145;0.4773024999994959;2401
146;0.4806368999998085;2401
147;0.48486589999993157;2400
148;0.48848829999951704;2400
149;0.491319000000658;2399
150;0.4942580999995698;2399
151;0.497341399999641;2399
152;0.5000559000000067;2398
153;0.503179999999702;2398
154;0.506129499999588;2397
155;0.5093054000008124;2397
156;0.5125396000003093;2397
157;0.5153583999999682;2397
158;0.5181622000000061;2396
159;0.5211806999996043;2396
160;0.5240240999992238;2396
161;0.5272731999993994;2395
162;0.5302520999994158;2395
163;0.5331370000003517;2395
164;0.5350908000000345;2394
165;0.538171300000613;2394
166;0.5410121000004438;2393
167;0.5431515000000218;2393
168;0.5449936999993952;2393
169;0.5470569000008254;2392
170;0.5501691999998002;2392
171;0.5521688999997423;2392
172;0.5540643999993335;2392
173;0.5559487999998964;2392
174;0.5579670000006445;2392
175;0.5601048999997147;2392
176;0.5621375999999145;2392
177;0.5646746000002167;2391
178;0.5671588000004704;2391
179;0.5701590999997279;2391
180;0.5720588000003772;2390
181;0.5741249999991851;2390
182;0.5761242000007769;2390
183;0.5791675000000396;2390
184;0.5815989000002446;2391
185;0.5841199999995297;2390
186;0.5860511999999289;2390
187;0.5881755999998859;2390
188;0.5913166999998793;2390
189;0.594204200000604;2390
190;0.5969414999999572;2389
191;0.5990199999996548;2389
192;0.6010726999993494;2389
193;0.6042118000004848;2389
194;0.6073885999994673;2389
195;0.6102372999994259;2390
196;0.6131829999994807;2390
197;0.6161885000001348;2390
198;0.6181027999991784;2390
199;0.6200033999994048;2391
200;0.6231236999992689;2390
201;0.6261964000004809;2390
202;0.6281378000003315;2390
203;0.6299911000005523;2390
204;0.6331891000008909;2390
205;0.6350172000002203;2390
206;0.6371730999999272;2390
207;0.6404003999996348;2391
208;0.6431983000002219;2391
209;0.6453215000001364;2391
210;0.6484416999992391;2391
211;0.6516128000002936;2390
212;0.6541342000000441;2390
213;0.6561366000005364;2390
214;0.6591676999996707;2390
215;0.6626751999992848;2391
216;0.6651201999993646;2391
217;0.6670809999995981;2391
218;0.6701668999994581;2391
219;0.6719582000005175;2391
220;0.6740253000007215;2392
221;0.6759887999996863;2391
222;0.6781759999994392;2391
223;0.6815936999992118;2392
224;0.6841464000008273;2392
225;0.6859604000001127;2392
226;0.6881518999998661;2392
227;0.6911381000008987;2392
228;0.6941509999996924;2392
229;0.6969267999993463;2393
230;0.6991125000004104;2393
231;0.7009994000000006;2393
232;0.7031872000006842;2393
233;0.7062685000000783;2393
234;0.7089352000002691;2394
235;0.7121805999995559;2394
236;0.7144141000007949;2394
237;0.7169542999999976;2395
238;0.719156600000133;2395
239;0.7226358999996592;2395
240;0.7256689000005281;2395
241;0.728711600000679;2395
242;0.7315471000001708;2396
243;0.734396600000764;2395
244;0.7373826999992161;2396
245;0.7405347999992955;2397
246;0.7435619000007136;2397
247;0.7463791999998648;2397
248;0.7491728000004514;2397
249;0.7525685000000522;2398
250;0.755268499999147;2398
251;0.7582715999997163;2398
252;0.7613987999993697;2398
253;0.7640687999992224;2399
254;0.7673200999997789;2399
255;0.7702432000005501;2400
256;0.7732520999998087;2400
257;0.7762557000005472;2401
258;0.7792716000003566;2401
259;0.7824044000008143;2401
260;0.785261700000774;2401
261;0.7882635999994818;2402
262;0.7912770999992063;2403
263;0.794249900000068;2404
264;0.7970404000006965;2404
265;0.8003662999999506;2405
266;0.8033300999995845;2405
267;0.8062599999993836;2406
268;0.8093322000004264;2406
269;0.8123611999999412;2406
270;0.8153774999991583;2406
271;0.8182644000007713;2407
272;0.8213250000007974;2408
273;0.8243932000004861;2408
274;0.8272555999992619;2409
275;0.8301425999998173;2409
276;0.8333039999997709;2410
277;0.8362472999997408;2410
278;0.8396307999992132;2410
279;0.8435119000005216;2411
280;0.8467165999991266;2412
281;0.8494212999994488;2412
282;0.8524383000003581;2413
283;0.8554579999999987;2413
284;0.8584444999996776;2414
285;0.8611669999991136;2414
286;0.864208700000745;2415
287;0.8673882999992202;2415
288;0.8703709000001254;2415
289;0.8733704000005673;2416
290;0.8763932999991084;2417
291;0.8791161999997712;2417
292;0.8812331000008271;2418
293;0.8843443999994633;2418
294;0.8873963999994885;2419
295;0.8903625999992073;2420
296;0.8932519000009052;2420
297;0.8961397000002762;2420
298;0.8993164999992587;2421
299;0.9023068000005878;2421
300;0.9053091999994649;2422
301;0.908397999999579;2422
302;0.9111424999991868;2423
303;0.9140556000002107;2424
304;0.9172837000005529;2424
305;0.9202870000008261;2425
306;0.9232515999992756;2425
307;0.9262084000001778;2426
308;0.9292922999993607;2426
309;0.9322864999994636;2426
310;0.9352877000001172;2427
311;0.9382877000007284;2427
312;0.9413036999994802;2428
313;0.9442832999993698;2428
314;0.9470677999997861;2428
315;0.9502854000002117;2429
316;0.9532481000005646;2429
317;0.956318900000042;2430
318;0.9591328999995312;2431
319;0.961250199999995;2431
320;0.964180299999498;2431
321;0.9673099999999977;2431
322;0.9702944000000571;2432
323;0.9731148999999277;2433
324;0.9763055999992503;2433
325;0.9792907999999443;2434
326;0.9822867999992013;2435
327;0.9853003000007448;2435
328;0.9882352000004175;2435
329;0.9912929000001895;2436
330;0.9943153000003804;2437
331;0.9970666999997775;2437
332;1.0002700000004552;2438
333;1.003316199999972;2438
334;1.006260399999519;2439
335;1.0093127000000095;2440
336;1.0122919999994338;2441
337;1.0152534999997442;2441
338;1.018315999999686;2442
339;1.02128730000004;2442
340;1.0243262999993021;2443
341;1.027309499999319;2444
342;1.030092599999989;2444
343;1.0332851999992272;2444
344;1.0361487999998644;2445
345;1.0392904000000271;2445
346;1.042315900000176;2446
347;1.0452879999993456;2446
348;1.0482959000000847;2447
349;1.051120500000252;2447
350;1.0531673999994382;2448
351;1.0561459000000468;2448
352;1.0581220999993093;2448
353;1.0601521999997203;2449
354;1.0630655999993905;2449
355;1.0650435000006837;2450
356;1.0670996000008017;2450
357;1.0690694999993866;2450
358;1.0710624999992433;2450
359;1.0730538000007073;2451
360;1.075399200000902;2451
361;1.0783262999993894;2451
362;1.0814816000001883;2451
363;1.0840540000008332;2452
364;1.086149500000829;2452
365;1.0882519999995566;2452
366;1.0911085000007006;2453
367;1.093108700000812;2453
368;1.0954411000002438;2454
369;1.0985294000001886;2454
370;1.1013320999991265;2454
371;1.104311900000539;2455
372;1.1072899999999208;2455
373;1.110302099999899;2456
374;1.1133353999994142;2456
375;1.1161140000003797;2457
376;1.1192790000004607;2457
377;1.122275499999887;2457
378;1.1254547999997158;2457
379;1.1283093999991252;2458
380;1.1313095000004978;2458
381;1.1341400000001158;2459
382;1.136037899999792;2459
383;1.1379594000009092;2459
384;1.1401286000000255;2459
385;1.1420600000001286;2460
386;1.1440700000002835;2461
387;1.1461309999995137;2461
388;1.1480092000001605;2461
389;1.1500651000005746;2461
390;1.1534991999997146;2462
391;1.1561768999999913;2462
392;1.1595532999999705;2462
393;1.1623122000000876;2463
394;1.165140999999494;2463
395;1.1671317000000272;2463
396;1.1692301999992196;2463
397;1.1721063000004506;2463
398;1.1740989000008994;2463
399;1.17611720000059;2464
400;1.1782106999999087;2464
401;1.1810427000000345;2464
402;1.183131499999945;2464
403;1.1850539999995817;2464
404;1.187213299999712;2464
405;1.190174699999261;2465
406;1.1921210000000428;2465
407;1.1951482000004034;2465
408;1.1980937000007543;2465
409;1.1999866000005568;2465
410;1.2019882000004145;2465
411;1.2041298000003735;2465
412;1.2061616999999387;2465
413;1.2080552999996144;2465
414;1.2102943999998388;2465
415;1.2132158000003983;2465
416;1.2150222000000213;2464
417;1.2169899000000441;2464
418;1.2190363999998226;2464
419;1.2213905999997223;2465
420;1.2242384000001039;2465
421;1.2273000000004686;2465
422;1.229981599999519;2465
423;1.2320653000006132;2465
424;1.234019999999873;2464
425;1.237018399999215;2464
426;1.2404576999997516;2465
427;1.2432566999996197;2465
428;1.246084599999449;2465
429;1.2479887999998027;2465
430;1.2500115999991976;2465
431;1.2519723999994312;2464
432;1.2543187999999645;2464
433;1.2575895999998465;2464
434;1.2603393999997934;2464
435;1.263247400000182;2464
436;1.2661327000005258;2464
437;1.2681940000002214;2464
438;1.270021700000143;2464
439;1.273502500000177;2464
440;1.2772289999993518;2463
441;1.2801978999996209;2463
442;1.2830952999993315;2463
443;1.285144699999364;2463
444;1.2873361999991175;2462
445;1.2905382999997528;2462
446;1.2935099999995145;2462
447;1.2963356000000203;2461
448;1.2991739999997662;2461
449;1.30096980000053;2461
450;1.3031293999993068;2461
451;1.3065993000000162;2461
452;1.30960579999919;2461
453;1.3123274999998102;2461
454;1.3150980999998865;2460
455;1.317100300000675;2460
456;1.3190013000003091;2460
457;1.321169299999383;2460
458;1.3244044999992184;2460
459;1.327261799999178;2460
460;1.3300455000007787;2459
461;1.3321090000008553;2459
462;1.3340330999999424;2459
463;1.3661506000007648;2458
464;1.3725381000003836;2456
465;1.3810628999999608;2454
466;1.3831604000006337;2453
467;1.3850636000006489;2453
468;1.387135599999965;2452
469;1.3889385000002221;2452
470;1.3910135999994964;2452
471;1.3929444000004878;2452
472;1.3949295000002166;2451
473;1.397080000000642;2451
474;1.3992951000000176;2451
475;1.4026360000007116;2450
476;1.4064981999999873;2450
477;1.409499400000641;2450
478;1.4125076000000263;2449
479;1.4151633000001311;2449
480;1.4170181000008597;2449
481;1.4203851999991457;2449
482;1.4234180999992532;2449
483;1.4264327000000776;2449
484;1.4294633000008616;2448
485;1.4322109000004275;2448
486;1.4351428000009037;2448
487;1.4372203000002628;2447
488;1.4406866999997874;2447
489;1.4446934000006877;2446
490;1.4481553000005079;2445
491;1.450101700000232;2445
492;1.452298599999267;2445
493;1.4552727999998751;2445
494;1.458409999999276;2444
495;1.4613812000006874;2444
496;1.4640803999991476;2443
497;1.4661410999997315;2443
498;1.4680960000005143;2442
499;1.4700800999999046;2442
500;1.4733541000005062;2442
501;1.4763590000002296;2441
502;1.47937230000025;2441
503;1.4821830000000773;2441
504;1.4841063000003487;2440
505;1.4873361999998451;2439
506;1.490271099999518;2439
507;1.493315800000346;2438
508;1.496317099999942;2437
509;1.4990897000006953;2437
510;1.5011090999996668;2437
511;1.5045762000008835;2436
512;1.5075159999996686;2435
513;1.5103201999991143;2435
514;1.5132904999991297;2434
515;1.5161036999998032;2434
516;1.5182609999992565;2434
517;1.5216588000002957;2433
518;1.5242990000006102;2433
519;1.5273118000004615;2432
520;1.52996610000082;2432
521;1.5321277000002738;2431
522;1.535618500000055;2431
523;1.5395358000005217;2430
524;1.542670900000303;2429
525;1.5452666000001045;2429
526;1.5480965999995533;2429
527;1.549994599999991;2428
528;1.5520133000009082;2427
529;1.5553206000004138;2427
530;1.5586791999994603;2426
531;1.5616351000007853;2425
532;1.5651914000009128;2425
533;1.5683442999998078;2425
534;1.5713078000007954;2424
535;1.574663800000053;2423
536;1.5773611000004166;2423
537;1.5801257000002806;2422
538;1.5821094999992056;2422
539;1.5840458999991824;2421
540;1.587310000000798;2421
541;1.5902492999994138;2420
542;1.593373800000336;2419
543;1.596862799999144;2418
544;1.6001348000008875;2418
545;1.602114999999685;2417
546;1.6053785999993124;2417
547;1.6086541000004217;2417
548;1.611478500000885;2416
549;1.6151726999996754;2415
550;1.6185693999996147;2415
551;1.6214178999998694;2414
552;1.6244200000001001;2413
553;1.6274200000007113;2413
554;1.6300790999994206;2412
555;1.6321597999994992;2412
556;1.634066200000234;2411
557;1.6374068999994051;2411
558;1.6404203000001871;2410
559;1.6434172000008402;2410
560;1.646478799999386;2409
561;1.6491819000002579;2409
562;1.6510120000002644;2408
563;1.6534092999991117;2408
564;1.6563833000000159;2408
565;1.6592268999993394;2408
566;1.6625899999999092;2407
567;1.6665833000006387;2407
568;1.6707514999998239;2405
569;1.6744359999993321;2405
570;1.6772328999995807;2404
571;1.6802437999995163;2404
572;1.6832924999998795;2403
573;1.6862607999992179;2402
574;1.6895440999996936;2402
575;1.6937312000009115;2401
576;1.69750059999933;2401
577;1.7001271000008273;2401
578;1.7020131000008405;2400
579;1.705722099999548;2400
580;1.7085251000007702;2399
581;1.711477000000741;2399
582;1.7143113999991328;2399
583;1.7171639999996842;2398
584;1.719166499999119;2398
585;1.7226202999991074;2398
586;1.7256410000009055;2398
587;1.728633799999443;2397
588;1.7311936999994941;2396
589;1.734100400000898;2396
590;1.7377240999994683;2395
591;1.7417323999998189;2395
592;1.745379399999365;2395
593;1.7481193999992684;2395
594;1.750096499999927;2394
595;1.7520796000007977;2394
596;1.755302199999278;2394
597;1.7583073999994667;2393
598;1.7613036999991891;2393
599;1.7644875000005413;2393
600;1.7672089000006963;2393
601;1.7705155999992712;2392
602;1.7734283999998297;2392
603;1.7761233000001084;2392
604;1.7791171000008035;2391
605;1.7812400000002526;2391
606;1.7840596000005462;2391
607;1.7863223000003927;2391
608;1.7893507000007958;2391
609;1.7923014000007242;2390
610;1.795418300000165;2390
611;1.7981569999992644;2390
612;1.8000327999998262;2390
613;1.802356599999257;2390
614;1.8051326000004337;2390
615;1.8083559999995487;2390
616;1.8111382000006415;2389
617;1.814177500000369;2389
618;1.8163053000007494;2390
619;1.8192058999993606;2389
620;1.8221582000005583;2389
621;1.8252480999999534;2389
622;1.8281760999998369;2389
623;1.8311771000007866;2389
624;1.8330712000006315;2389
625;1.8363626999998814;2390
626;1.8393538000000262;2389
627;1.8423502999994525;2389
628;1.8452280000001338;2389
629;1.8483128999996552;2389
630;1.8512924000006024;2390
631;1.8543090000002849;2389
632;1.8572585999991134;2390
633;1.8602200000004814;2389
634;1.8621949999997014;2390
635;1.864090999999462;2389
636;1.8660163999993529;2389
637;1.8679725999991206;2389
638;1.870003899999574;2389
639;1.8721820999999181;2389
640;1.8751107999996748;2389
641;1.878191699999661;2390
642;1.8799727999994502;2390
643;1.8820484999996552;2390
644;1.8840503999999783;2390
645;1.8860963999995874;2391
646;1.8892962999998417;2390
647;1.8925175000003946;2390
648;1.8952907999992021;2390
649;1.8981810999994195;2390
650;1.901122100000066;2391
651;1.9042614999998477;2391
652;1.907252700000754;2391
653;1.9104542000004585;2391
654;1.913249999999607;2391
655;1.915358099999139;2392
656;1.9183248000008462;2392
657;1.9212956999999733;2392
658;1.9242900000008376;2393
659;1.9270857999999862;2393
660;1.9300158000005467;2393
661;1.932400300000154;2393
662;1.9352851000003284;2393
663;1.9383008999993763;2393
664;1.9400382999992871;2394
665;1.9422778999996808;2394
666;1.9452927999991516;2394
667;1.9483481999996002;2394
668;1.9512782000001607;2395
669;1.9541191999996954;2395
670;1.9573285999995278;2395
671;1.9602957000006427;2395
672;1.9629867999992712;2395
673;1.9650904999998602;2396
674;1.9671388000006118;2396
675;1.9703747000003204;2396
676;1.9732825999999477;2397
677;1.9760726999993494;2397
678;1.9781622999998945;2397
679;1.9800752999999531;2397
680;1.9820639000008669;2398
681;1.9840784999996686;2398
682;1.9861232999992353;2398
683;1.9892343999999866;2398
684;1.9926539999996749;2398
685;1.9956065000005765;2399
686;1.9983453000004374;2399
687;2.0014157999994495;2399
688;2.0056755999994493;2399
689;2.00872420000087;2400
690;2.0123913000006723;2400
691;2.015226999999868;2400
692;2.0180679999994027;2401
693;2.0202759000003425;2401
694;2.023272399999769;2402
695;2.0262930000008055;2402
696;2.0294255999997404;2403
697;2.0321760999995604;2403
698;2.0340151000000333;2404
699;2.036190999999235;2404
700;2.039466899999752;2404
701;2.042293000000427;2404
702;2.0453520999999455;2405
703;2.048213300000498;2405
704;2.0501356000004307;2406
705;2.0532664000002114;2406
706;2.0561684999993304;2407
707;2.0581705999993574;2407
708;2.060167300000103;2407
709;2.0621671000008064;2407
710;2.064066599999933;2407
711;2.066035199999533;2408
712;2.0680606000005355;2408
713;2.0701102999992145;2408
714;2.0721229999999196;2408
715;2.075169600000663;2409
716;2.0781819999992877;2409
717;2.081141000000571;2410
