;time;amplitude
0;0.0033255999987886753;2266
1;0.006444099999498576;2267
2;0.009446099998967838;2267
3;0.012571999999636319;2267
4;0.01667769999949087;2267
5;0.020451399999728892;2268
6;0.023665699998673517;2268
7;0.026670499999454478;2268
8;0.02967239999998128;2268
9;0.03268889999890234;2268
10;0.035494999998263665;2268
11;0.038703399999576504;2269
12;0.04169519999959448;2269
13;0.04458139999951527;2269
14;0.04772669999874779;2270
15;0.05072909999944386;2270
16;0.053420799999003066;2270
17;0.05655349999869941;2271
18;0.0594900999985839;2271
19;0.06233129999964149;2271
20;0.06530399999974179;2271
21;0.068453199999567;2271
22;0.07140869999966526;2271
23;0.07456769999953394;2271
24;0.07735589999902004;2271
25;0.0803591999992932;2272
26;0.08336189999863564;2272
27;0.08638159999827622;2272
28;0.09004689999892435;2273
29;0.09331399999973655;2273
30;0.09662649999881978;2274
31;0.0996142999993026;2275
32;0.10258839999914926;2275
33;0.1054839999997057;2275
34;0.10816659999909461;2276
35;0.11148139999932027;2276
36;0.11447339999904216;2277
37;0.1174230999986321;2277
38;0.12065829999846756;2277
39;0.12364199999865377;2278
40;0.126648399998885;2279
41;0.12965229999826988;2279
42;0.1326465999991342;2280
43;0.13577799999984563;2280
44;0.13938519999828713;2281
45;0.14234869999927469;2282
46;0.14562519999890355;2283
47;0.14861479999854055;2283
48;0.1513491999994585;2284
49;0.1549758999990445;2284
50;0.15880059999835794;2285
51;0.16277529999933904;2286
52;0.16579009999986738;2286
53;0.16936959999839019;2287
54;0.17276249999849824;2288
55;0.1768058999987261;2288
56;0.1808134999992035;2289
57;0.1848019999997632;2290
58;0.18777699999918696;2291
59;0.19177819999822532;2291
60;0.19580539999878965;2292
61;0.19877139999880455;2292
62;0.20273379999889585;2293
63;0.2067853999997169;2294
64;0.20972379999875557;2295
65;0.21379479999995965;2297
66;0.21780549999857612;2298
67;0.22159819999978936;2299
68;0.22582149999834655;2300
69;0.22977449999962118;2301
70;0.2337733999993361;2302
71;0.23777779999909399;2303
72;0.24135219999880064;2305
73;0.24435889999949723;2306
74;0.2476989999995567;2307
75;0.25154599999950733;2308
76;0.254469199999221;2309
77;0.2574992999998358;2310
78;0.26048639999862644;2311
79;0.2632841999984521;2312
80;0.26638029999958235;2313
81;0.2689911999987089;2314
82;0.2723952999986068;2315
83;0.27506479999829025;2316
84;0.2770634999997128;2317
85;0.27916929999992135;2317
86;0.2811521999992692;2318
87;0.28444689999923867;2318
88;0.2874089999986609;2319
89;0.290390699999989;2320
90;0.29338989999996556;2321
91;0.29638749999867287;2322
92;0.2994232999990345;2323
93;0.30235909999828436;2324
94;0.30581229999916104;2325
95;0.31006109999907494;2326
96;0.3140538999996352;2328
97;0.31788479999886476;2329
98;0.3217326999983925;2331
99;0.32612459999836574;2332
100;0.32978219999858993;2333
101;0.33480519999829994;2335
102;0.33898079999926267;2336
103;0.34296249999897555;2338
104;0.3468680999994831;2339
105;0.350971899999422;2341
106;0.35487709999870276;2342
107;0.3589598999988084;2344
108;0.3629698999993707;2345
109;0.3669637999992119;2346
110;0.370505899998534;2348
111;0.37464669999826583;2349
112;0.3789182999989862;2351
113;0.38288619999912044;2353
114;0.38636289999885776;2354
115;0.38955169999826467;2355
116;0.392227999998795;2357
117;0.39531499999975495;2358
118;0.39888519999840355;2359
119;0.40276189999894996;2360
120;0.40632539999933215;2362
121;0.4095225999990362;2363
122;0.41251329999977315;2364
123;0.4155330999983562;2365
124;0.4181559999997262;2367
125;0.42153809999945224;2367
126;0.42452809999849705;2369
127;0.42752759999893897;2370
128;0.4305341999988741;2371
129;0.43352559999948426;2373
130;0.4362894999994751;2374
131;0.4393456999987393;2375
132;0.44245049999881303;2376
133;0.4453555999989476;2378
134;0.44837749999896914;2379
135;0.45138569999835454;2380
136;0.4545152999999118;2380
137;0.4575161999982811;2382
138;0.4605188999994425;2383
139;0.4632778999985021;2385
140;0.46650269999918237;2386
141;0.46926349999921513;2387
142;0.47250609999900917;2389
143;0.4755018999985623;2390
144;0.4785078999993857;2392
145;0.48151449999932083;2393
146;0.4844768999992084;2394
147;0.48751979999906325;2396
148;0.4905220999989979;2397
149;0.493505999998888;2398
150;0.4965273999987403;2400
151;0.49952009999833535;2401
152;0.502415299999484;2402
153;0.5055015999987518;2404
154;0.5085095999984333;2405
155;0.5115160999994259;2407
156;0.5145031999982166;2408
157;0.51742479999848;2410
158;0.5205151999998634;2411
159;0.5235040999996272;2412
160;0.5265007999987574;2414
161;0.5292864999992162;2416
162;0.5323062999996182;2417
163;0.5364526999983354;2418
164;0.5398217999991175;2420
165;0.5435746999992261;2422
166;0.5478435999993962;2423
167;0.5513691999985895;2425
168;0.5548231999982818;2426
169;0.5588410999989719;2428
170;0.5623837999992247;2430
171;0.565274299999146;2431
172;0.5681944999996631;2432
173;0.5713051999991876;2434
174;0.5744963999986794;2436
175;0.5775021999997989;2437
176;0.5804954999985057;2438
177;0.5835385999998834;2440
178;0.5862572999994882;2441
179;0.5895561999986967;2442
180;0.5925021999992168;2444
181;0.5952587999981915;2446
182;0.5983216999993601;2447
183;0.6013428999995085;2448
184;0.6042328999992606;2449
185;0.6077366999998048;2451
186;0.6117882999988069;2453
187;0.6158004999997502;2454
188;0.6192855999997846;2456
189;0.6226535999994667;2457
190;0.6251803999984986;2459
191;0.6281909999997879;2460
192;0.6316335999999865;2461
193;0.635713499999838;2463
194;0.6399884999991627;2465
195;0.6438543999993271;2466
196;0.6479252999997698;2468
197;0.6517838999989181;2470
198;0.6558211999999912;2471
199;0.6601505999988149;2472
200;0.6646379999983765;2474
201;0.6691995999990468;2475
202;0.6728281999985484;2477
203;0.6770810999987589;2478
204;0.6810935999983485;2480
205;0.6845087999990938;2481
206;0.6876412999990862;2482
207;0.6921657999992021;2484
208;0.6971798999984458;2486
209;0.7021520999987843;2487
210;0.7058943999982148;2489
211;0.7101264999982959;2490
212;0.7141188999994483;2492
213;0.7179169999999431;2493
214;0.7221488999985013;2494
215;0.7261357999996108;2496
216;0.7296318999997311;2498
217;0.7336040999998659;2499
218;0.7363229999991745;2501
219;0.7395659999983764;2502
220;0.7427321999984997;2504
221;0.7455878999990091;2505
222;0.7486344999997527;2507
223;0.7526372999982414;2508
224;0.7558525999993435;2510
225;0.7598013999995601;2512
226;0.7638422999989416;2513
227;0.7678201999988232;2514
228;0.7718804999985878;2516
229;0.7753156999988278;2518
230;0.7787452999982634;2519
231;0.7828475999995135;2521
232;0.7863106999993761;2523
233;0.7895133999991231;2524
234;0.7925398999996105;2525
235;0.7955138999986957;2527
236;0.7985558999989735;2528
237;0.8015566999984003;2529
238;0.804564299998674;2530
239;0.8075725999988208;2531
240;0.8105809999997291;2532
241;0.8135705999993661;2533
242;0.8163763999982621;2535
243;0.8192161999995733;2536
244;0.822568699999465;2537
245;0.8255412999988039;2538
246;0.8285379999997531;2539
247;0.8315581999995629;2540
248;0.834528199999113;2541
249;0.8375693999987561;2543
250;0.8405696999998327;2544
251;0.8435348999992129;2545
252;0.8465443999994022;2547
253;0.8493479999997362;2548
254;0.8523064999990311;2549
255;0.8555315999983577;2550
256;0.8585349999993923;2551
257;0.8615378999984387;2552
258;0.86453419999998;2553
259;0.8675349999994069;2554
260;0.8705458999993425;2554
261;0.8732616999986931;2555
262;0.8765589999984513;2556
263;0.8795530999996117;2557
264;0.8825871999997617;2559
265;0.8855394999991404;2560
266;0.888548199998695;2560
267;0.8914999999997235;2561
268;0.8945224999988568;2562
269;0.8975160999998479;2563
270;0.9005268999990221;2564
271;0.9035236999989138;2565
272;0.9064979999984644;2566
273;0.9094997999982297;2566
274;0.9125371999998606;2567
275;0.9158485999996628;2567
276;0.919406799999706;2568
277;0.9226079000000027;2569
278;0.9257209999996121;2569
279;0.92856269999902;2570
280;0.9315651999986585;2571
281;0.9345490999985486;2571
282;0.9375293999983114;2572
283;0.940219199999774;2573
284;0.94212829999924;2574
285;0.9441890999987663;2574
286;0.9460590999988199;2575
287;0.9480394999991404;2576
288;0.9501897999998619;2576
289;0.9531976999987819;2577
290;0.9553039999991597;2578
291;0.9570736999994551;2578
292;0.9590630999991845;2578
293;0.9611445999998978;2579
294;0.9630464999991091;2579
295;0.9650796999994782;2579
296;0.9673066999985167;2579
297;0.9701252999984717;2580
298;0.9722200999985944;2580
299;0.9740819999988162;2580
300;0.9761778999982198;2581
301;0.9781944999995176;2581
302;0.9801540999997087;2581
303;0.9831000999984099;2582
304;0.9851933999998437;2582
305;0.9882296999985556;2582
306;0.9912239999994199;2583
307;0.9942332999999053;2583
308;0.9972272999984853;2583
309;1.000236699999732;2584
310;1.0032331999991584;2585
311;1.00624759999846;2585
312;1.0092700999994122;2586
313;1.0122527999992599;2586
314;1.0152991999984806;2586
315;1.0182883999987098;2586
316;1.0202813999985665;2586
317;1.0232546999995975;2586
318;1.0262363999991067;2586
319;1.0280499999989843;2586
320;1.0302253999998356;2586
321;1.0331644999987475;2586
322;1.035166699999536;2587
323;1.037098299999343;2588
324;1.0392283999990468;2588
325;1.0412066999997478;2588
326;1.0434061999985715;2588
327;1.0463902999999846;2588
328;1.0494152999999642;2588
329;1.0522804999982327;2588
330;1.0554485999982717;2589
331;1.0581912999987253;2589
332;1.060103199999503;2589
333;1.0620796999992308;2590
334;1.064204799999061;2590
335;1.0660769999994955;2591
336;1.0682181999982276;2591
337;1.0700535999985732;2591
338;1.0722155999992538;2591
339;1.0742360999993252;2591
340;1.0762283999993087;2592
341;1.0782389999985753;2592
342;1.0813773999998375;2592
343;1.0844385999989754;2592
344;1.087367299998732;2593
345;1.0904270999999426;2594
346;1.0934411999987788;2594
347;1.0964315999990504;2594
348;1.0994440999984363;2594
349;1.1022831999998743;2595
350;1.1054013999983;2595
351;1.108395199998995;2595
352;1.1114057999984652;2595
353;1.114444499999081;2595
354;1.11740699999973;2595
355;1.1205387999998493;2596
356;1.1235359999991488;2596
357;1.1265373999995063;2595
358;1.129537299999356;2595
359;1.1324084999996558;2595
360;1.1355969999985973;2595
361;1.1385455999989063;2595
362;1.1415330999989237;2595
363;1.1441389999999956;2595
364;1.1475142999988748;2595
365;1.1505379999998695;2595
366;1.1535299999995914;2594
367;1.1565451999995275;2595
368;1.1595405999996728;2594
369;1.1625459999995655;2594
370;1.1655364999987796;2593
371;1.168541599998207;2593
372;1.1715378999997483;2593
373;1.1745207999993;2593
374;1.177538399999321;2592
375;1.1805795999989641;2592
376;1.1835534999991069;2592
377;1.186287299999094;2591
378;1.1895387999993545;2591
379;1.1924337999989802;2591
380;1.1955301999987569;2591
381;1.1985412999983964;2591
382;1.2015367999993032;2591
383;1.2044323999998596;2591
384;1.2074553999991622;2591
385;1.2104415999983758;2590
386;1.2134323999998742;2590
387;1.2161567999992258;2590
388;1.2180611999992834;2590
389;1.2200643999985914;2589
390;1.222227299998849;2589
391;1.2243211999993946;2588
392;1.226189199998771;2588
393;1.2281278999998904;2587
394;1.230270299998665;2587
395;1.2333860999988246;2587
396;1.236187999998947;2586
397;1.2394200999988243;2586
398;1.2424118999988423;2585
399;1.2454099999995378;2585
400;1.2484245999985433;2585
401;1.2514305999993667;2585
402;1.2543890999986615;2585
403;1.2573929999998654;2584
404;1.2604034999985743;2584
405;1.2633867999993527;2583
406;1.2663758999988204;2583
407;1.2691828999995778;2582
408;1.2724169999983133;2582
409;1.27541999999994;2581
410;1.2784190999991552;2581
411;1.2812257999994472;2580
412;1.2843469999988884;2579
413;1.2874216999989585;2579
414;1.2904280999991897;2578
415;1.2934219999988272;2578
416;1.2964296999998624;2578
417;1.2994011999999202;2578
418;1.3021735999991506;2578
419;1.305403699998351;2577
420;1.30840409999837;2577
421;1.311411999999109;2576
422;1.3144089999987045;2576
423;1.3174004999982571;2576
424;1.3204003999999259;2575
425;1.3233986999985063;2574
426;1.327410999998392;2573
427;1.3303944999988744;2572
428;1.3334024999985559;2572
429;1.3362463999983447;2571
430;1.3394035999990592;2571
431;1.3423521999993682;2570
432;1.3454189999993105;2569
433;1.3485044999997626;2569
434;1.351506299999528;2568
435;1.3545047999996314;2568
436;1.3575077999994392;2567
437;1.3604390999989846;2567
438;1.3635096999987582;2566
439;1.3664998999993259;2565
440;1.369216499999311;2565
441;1.3724985999997443;2564
442;1.3755084999993414;2563
443;1.3785145999991073;2562
444;1.3815098999984912;2562
445;1.3845098999991023;2561
446;1.3875019999995857;2560
447;1.3905316999989736;2559
448;1.393517399999837;2558
449;1.3965981999990618;2558
450;1.399507199999789;2557
451;1.4022234999993088;2556
452;1.4055094999985158;2555
453;1.40849629999866;2555
454;1.4115102999985538;2554
455;1.414241899999979;2553
456;1.4174822999993921;2552
457;1.4205115999993723;2551
458;1.4236345999997866;2551
459;1.4262605999992957;2549
460;1.4284875999983342;2548
461;1.4316328999993857;2547
462;1.4353822999983095;2546
463;1.438741799998752;2545
464;1.4428177999998297;2544
465;1.4467650999995385;2542
466;1.4492822999982309;2542
467;1.452242599998499;2541
468;1.4552496999986033;2540
469;1.458219199999803;2539
470;1.4615907999996125;2538
471;1.4646140999993804;2537
472;1.4676040999984252;2536
473;1.4707761999998183;2535
474;1.4731482999995933;2534
475;1.475143499999831;2534
476;1.4771688999990147;2533
477;1.4791727999981958;2532
478;1.482471199999054;2532
479;1.485404799999742;2530
480;1.488486099999136;2530
481;1.4914940999988175;2529
482;1.494484699998793;2528
483;1.49753199999941;2527
484;1.5005247999997664;2526
485;1.5033969999985857;2525
486;1.5063213999983418;2525
487;1.5096790999996301;2524
488;1.5136971999982052;2523
489;1.5177126999988104;2522
490;1.5218448999985412;2519
491;1.5258775999991485;2518
492;1.5298731999992015;2517
493;1.534093699998266;2515
494;1.5378145999984554;2514
495;1.5413016999991669;2512
496;1.5447576999995363;2511
497;1.5482788999997865;2509
498;1.5517221999998583;2508
499;1.554536099998586;2507
500;1.5574916999994457;2506
501;1.5604551999986143;2505
502;1.5631274999996094;2504
503;1.5664361999988614;2503
504;1.569185299998935;2502
505;1.572530799998276;2501
506;1.5752009999996517;2500
507;1.5785092999994959;2499
508;1.5816417999994883;2497
509;1.5845256999982666;2496
510;1.5875303999982862;2495
511;1.590525899999193;2493
512;1.5935267999993812;2492
513;1.596525199998723;2491
514;1.5995211999997991;2490
515;1.6022713999991538;2488
516;1.6055339999984426;2487
517;1.6085223999998561;2485
518;1.6114216999994824;2484
519;1.6145212999999785;2483
520;1.6175208999993629;2481
521;1.620529899999383;2479
522;1.6235413999984303;2478
523;1.6265029999995022;2476
524;1.6295239999999467;2475
525;1.6324967999989894;2473
526;1.6354658999989624;2472
527;1.6384981999999582;2470
528;1.641501199999766;2469
529;1.6444739999988087;2467
530;1.6475007999997615;2465
531;1.6504985999999917;2464
532;1.6535149999999703;2463
533;1.6562280999987706;2462
534;1.6595025999995414;2461
535;1.6624980999986292;2459
536;1.6655039999986911;2458
537;1.6685209999996005;2457
538;1.6715118999982224;2456
539;1.674500999999509;2454
540;1.677416299999095;2453
541;1.6805058999998437;2452
542;1.6835011999992275;2451
543;1.686500399999204;2450
544;1.6891938999997365;2449
545;1.6924977999988187;2448
546;1.6955238999998983;2447
547;1.6985015999998723;2445
548;1.7015008999987913;2444
549;1.70452369999839;2443
550;1.7074953999999707;2442
551;1.7103542999993806;2441
552;1.7135035999999673;2439
553;1.7164985999988858;2438
554;1.719310399999813;2436
555;1.7221609999996872;2435
556;1.7255116999986058;2434
557;1.7284976999999344;2432
558;1.7315094999994471;2430
559;1.734226899998248;2429
560;1.7363247999983287;2428
561;1.7395015999991301;2427
562;1.7425088999989384;2426
563;1.7451934999990044;2424
564;1.7485447999988537;2423
565;1.7515222999991238;2421
566;1.7545084999983374;2420
567;1.757594999999128;2419
568;1.760668099999748;2417
569;1.7648249999983818;2415
570;1.7697383999984595;2413
571;1.7743115999983274;2411
572;1.7792483999983233;2409
573;1.7842283999998472;2407
574;1.788927399999011;2405
575;1.7926390999982686;2403
576;1.7956097999995109;2402
577;1.7996619999994437;2401
578;1.8024223999982496;2399
579;1.8054980999986583;2398
580;1.8086563999986538;2397
581;1.8116428999983327;2395
582;1.8146648999991157;2394
583;1.8186147999986133;2393
584;1.8216282999983378;2391
585;1.8246821999982785;2390
586;1.827655599998252;2388
587;1.8306553999991593;2386
588;1.8335186999993311;2385
589;1.8376692999991064;2384
590;1.8406478999986575;2382
591;1.843866999999591;2380
592;1.8476387999999133;2379
593;1.850673499999175;2377
594;1.8536710999997013;2376
595;1.8566565999990416;2374
596;1.859651799999483;2373
597;1.862673799998447;2372
598;1.866370999998253;2371
599;1.8694380999986606;2369
600;1.8726685999990877;2368
601;1.875657399999909;2366
602;1.8784294999986741;2365
603;1.8816435999997339;2364
604;1.8846350999992865;2362
605;1.8876662999991822;2361
606;1.8904412999982014;2360
607;1.8934498999988136;2359
608;1.89666699999907;2358
609;1.8993866999990132;2356
610;1.90244789999997;2355
611;1.905669099998704;2354
612;1.9086352999984229;2353
613;1.9116616999999678;2352
614;1.9146503999982087;2351
615;1.917648199998439;2350
616;1.9206731999984186;2349
617;1.9246773999984725;2348
618;1.9276660999985324;2347
619;1.9306396999982098;2345
620;1.9336597999990772;2344
621;1.9364998999990348;2343
622;1.940665699999954;2342
623;1.943267199998445;2340
624;1.9466598999988491;2339
625;1.9496597999986989;2338
626;1.9524498999999196;2337
627;1.9570510999983526;2336
628;1.960963699999411;2334
629;1.9650028999985807;2333
630;1.9691019999991113;2331
631;1.9729062999995222;2330
632;1.9769317999998748;2328
633;1.9809324999987439;2326
634;1.984969799999817;2325
635;1.9884057999988727;2323
636;1.99188889999823;2322
637;1.9959704999982932;2321
638;2.0000330999992;2319
639;2.0034498999993957;2317
640;2.008026899999095;2316
641;2.0114780999992945;2315
642;2.0144619999991846;2313
643;2.0174253999994107;2312
644;2.020499199999904;2311
645;2.0235131999997975;2309
646;2.0264514999998937;2309
647;2.029415599999993;2307
648;2.032411399999546;2307
649;2.036477699999523;2305
650;2.0394220999987738;2304
651;2.042613399999027;2303
652;2.045627699999386;2302
653;2.0486298999985593;2301
654;2.051570099998571;2301
655;2.05475959999967;2301
656;2.0588380999997753;2300
657;2.062834999998813;2299
658;2.065616499998214;2298
659;2.0688283999988926;2296
660;2.071699099999023;2296
661;2.074605599998904;2296
662;2.0774471999993693;2295
663;2.0804088999993837;2294
664;2.083405199999106;2294
665;2.0865645999983826;2293
666;2.089504499999748;2293
667;2.092628999998851;2292
668;2.0955071999997017;2292
669;2.0982822999994823;2291
670;2.10153469999932;2290
671;2.1045426999990013;2290
672;2.107535499999358;2289
673;2.1105377999992925;2288
674;2.1135275999986334;2288
675;2.116584299999886;2287
676;2.1192154999989725;2286
677;2.1211662999994587;2286
678;2.1232097999982216;2285
679;2.125234299999647;2285
680;2.1271987999989506;2284
681;2.129532899998594;2284
682;2.1325194999990345;2283
683;2.1353177999990294;2282
684;2.137255899999218;2282
685;2.1392668999997113;2282
686;2.1412332999989303;2282
687;2.1432834999995976;2282
688;2.1452555999985634;2281
689;2.1471791999993;2281
690;2.149214099999881;2280
691;2.151204099998722;2280
692;2.1530850999988616;2279
693;2.1552995999991253;2278
694;2.1583110999999917;2278
695;2.161871999998766;2277
696;2.1658158999998705;2276
697;2.169376399999237;2276
698;2.172648099998696;2275
699;2.1752119999982824;2275
700;2.178404499998578;2275
701;2.181448999999702;2274
702;2.18472809999912;2274
703;2.189346999999543;2273
704;2.194375899998704;2273
705;2.1993782999998075;2272
706;2.2038586999988183;2271
707;2.2084308999983477;2271
708;2.212848599998324;2270
709;2.2171485999988363;2269
710;2.220406799999182;2269
711;2.2235793999989255;2269
712;2.228031099999498;2269
713;2.2314910999994026;2269
714;2.2344471999986126;2269
715;2.2373992999982875;2269
716;2.240843899999163;2269
717;2.2449100999983784;2269
718;2.2488821999995707;2269
