;time;amplitude
0;0.002403700000286335;2404
1;0.005804500000522239;2404
2;0.009717999999338645;2405
3;0.013300599999638507;2405
4;0.016284200000882265;2405
5;0.019861000000673812;2405
6;0.022427699999752804;2405
7;0.025633699999161763;2405
8;0.02834679999978107;2406
9;0.03133700000034878;2406
10;0.0342571000001044;2406
11;0.036460499999520835;2407
12;0.03977649999978894;2407
13;0.042315200000302866;2408
14;0.04539509999995062;2408
15;0.048449199999595294;2408
16;0.051156600000467733;2408
17;0.053348199999163626;2408
18;0.05667229999926349;2408
19;0.05940279999958875;2409
20;0.06226840000090306;2409
21;0.06413969999994151;2409
22;0.06625519999943208;2409
23;0.06824720000076923;2409
24;0.07142209999983606;2409
25;0.07442160000027798;2409
26;0.0773910000007163;2410
27;0.07915099999991071;2410
28;0.08123689999956696;2410
29;0.0843194000008225;2410
30;0.08666690000063682;2410
31;0.0896948000008706;2410
32;0.09230489999936253;2411
33;0.09523620000072697;2411
34;0.09721870000066701;2411
35;0.10015170000042417;2412
36;0.10224940000080096;2412
37;0.10525939999934053;2413
38;0.1087227999996685;2413
39;0.11149680000016815;2413
40;0.11428420000083861;2413
41;0.11718069999915315;2414
42;0.11942230000022391;2414
43;0.12269360000027518;2414
44;0.12552289999985078;2415
45;0.1281751999995322;2415
46;0.13038869999945746;2415
47;0.1334779000007984;2416
48;0.13768110000091838;2416
49;0.1402044999995269;2417
50;0.14259909999964293;2418
51;0.1452728999993269;2418
52;0.14823670000077982;2419
53;0.15022809999936726;2419
54;0.15337750000071537;2419
55;0.15644780000002356;2420
56;0.15954729999975825;2420
57;0.16223429999990913;2421
58;0.16418100000009872;2421
59;0.16618879999987257;2422
60;0.16811439999946742;2422
61;0.171368799999982;2422
62;0.17440480000004754;2422
63;0.17758580000008806;2422
64;0.1802693999998155;2423
65;0.18309030000091298;2424
66;0.1855082999991282;2424
67;0.18839350000052946;2424
68;0.19158950000019104;2425
69;0.19453009999961068;2425
70;0.19726620000074035;2425
71;0.19914590000007593;2426
72;0.20277100000021164;2426
73;0.20669880000059493;2427
74;0.20968790000006265;2427
75;0.21228549999977986;2428
76;0.214245099999971;2428
77;0.21623170000020764;2428
78;0.2181591999997181;2428
79;0.22045079999952577;2429
80;0.22341039999992063;2429
81;0.22652620000008028;2430
82;0.22914830000081565;2430
83;0.2312000000001717;2430
84;0.23309250000056636;2430
85;0.23623070000030566;2431
86;0.23871440000039001;2432
87;0.2417604999991454;2432
88;0.24532270000054268;2433
89;0.24721639999916079;2433
90;0.2492275000004156;2434
91;0.25121819999912987;2434
92;0.2531954999994923;2434
93;0.25652179999997315;2435
94;0.2593307000006462;2435
95;0.2622776000007434;2436
96;0.2642181999999593;2436
97;0.26619940000091447;2437
98;0.26820170000064536;2437
99;0.27139360000001034;2438
100;0.27439699999922595;2438
101;0.27724160000070697;2438
102;0.27923159999954805;2439
103;0.28123930000037944;2439
104;0.28323380000074394;2439
105;0.2851116000001639;2439
106;0.28733479999937117;2439
107;0.2904261999992741;2439
108;0.29339509999954316;2440
109;0.2962528999996721;2440
110;0.29822649999914574;2441
111;0.30024779999985185;2441
112;0.30228019999958633;2441
113;0.30426769999940007;2441
114;0.30743470000015805;2442
115;0.31059970000023895;2443
116;0.3132814000000508;2443
117;0.3152375999998185;2443
118;0.31711949999953504;2443
119;0.31966130000000703;2443
120;0.322286399999939;2443
121;0.3253199999999197;2443
122;0.3271832999998878;2443
123;0.3292230999995809;2444
124;0.33117739999943296;2444
125;0.3341829000000871;2444
126;0.3374612999996316;2444
127;0.3402010000008886;2444
128;0.343443899999329;2444
129;0.34629820000009204;2444
130;0.34926959999938845;2444
131;0.3511429999998654;2444
132;0.3534252999997989;2445
133;0.3565448000008473;2445
134;0.3606070000005275;2445
135;0.36329420000038226;2445
136;0.36625180000010005;2446
137;0.3681892999993579;2446
138;0.3702040999996825;2446
139;0.3736659999995027;2446
140;0.3766304000000673;2446
141;0.379317799999626;2446
142;0.3821948999993765;2446
143;0.384340799999336;2446
144;0.38743260000046575;2446
145;0.39032030000089435;2447
146;0.3933302999994339;2447
147;0.39618739999968966;2447
148;0.398236299999553;2448
149;0.400215699999535;2448
150;0.40337539999927685;2448
151;0.4063592000002245;2448
152;0.40929289999985485;2448
153;0.41235210000013467;2449
154;0.415204700000686;2449
155;0.41736219999984314;2449
156;0.4205928999999742;2450
157;0.4235929999995278;2450
158;0.4266107999992528;2450
159;0.42920459999913874;2450
160;0.4311297000003833;2450
161;0.4331297999997332;2450
162;0.43520859999989625;2451
163;0.4373085999995965;2451
164;0.44039230000089447;2451
165;0.4434153999991395;2451
166;0.4462359999997716;2451
167;0.4482000000007247;2451
168;0.4504161999993812;2451
169;0.4531893000003038;2451
170;0.45620989999952144;2451
171;0.45920330000080867;2451
172;0.46217190000061237;2451
173;0.464245099999971;2450
174;0.46614340000087395;2450
175;0.4684670000006008;2450
176;0.4714729000006628;2450
177;0.47441889999936393;2450
178;0.4774030999997194;2450
179;0.4802134000001388;2450
180;0.4822373000006337;2450
181;0.4845375000004424;2450
182;0.48755789999995613;2450
183;0.4903935000002093;2450
184;0.4932501000002958;2450
185;0.4963036999997712;2450
186;0.49914320000061707;2450
187;0.5015941000001476;2450
188;0.5044197999995959;2450
189;0.5074698000007629;2450
190;0.5104781999998522;2450
191;0.5122652999998536;2449
192;0.5142245000006369;2450
193;0.5161038000005647;2449
194;0.5197714999994787;2450
195;0.5227216000002954;2450
196;0.5256239000009373;2450
197;0.5282538999999815;2450
198;0.5302358000008098;2449
199;0.532197399999859;2450
200;0.5343807000008383;2450
201;0.5374477000004845;2450
202;0.5402073999994172;2450
203;0.5422335000002931;2449
204;0.5441448000001401;2449
205;0.5461962999997922;2449
206;0.549257700000453;2449
207;0.5522837999997137;2449
208;0.5554816999992909;2449
209;0.5584294000000227;2448
210;0.5611399000008532;2447
211;0.5632504999994126;2447
212;0.5651187999992544;2447
213;0.5673862000003282;2447
214;0.5704857000000629;2446
215;0.5733603000007861;2446
216;0.5763162999992346;2446
217;0.5793281999995088;2445
218;0.5812308000004123;2445
219;0.5831146000000444;2445
220;0.5867448000008153;2444
221;0.5895376999997097;2444
222;0.5925177999997686;2443
223;0.5952801000003092;2443
224;0.5982858000006672;2443
225;0.6004033999997773;2442
226;0.6033050999994884;2442
227;0.6063376000001881;2441
228;0.6093347999994876;2441
229;0.6121550000007119;2440
230;0.6142003999993904;2440
231;0.6161334999997052;2440
232;0.6193753999996261;2440
233;0.6225037000003795;2440
234;0.6255103000003146;2439
235;0.6281441999999515;2439
236;0.6302433000000747;2438
237;0.6322232000002259;2438
238;0.6353815000002214;2438
239;0.6384111999996094;2438
240;0.6413780000002589;2437
241;0.6444183999992674;2437
242;0.6473268000008829;2436
243;0.6491375000005064;2436
244;0.6524349999999686;2436
245;0.6552449999999226;2435
246;0.6582381000007445;2435
247;0.6614530000006198;2435
248;0.6642979999996896;2434
249;0.6673215999999229;2434
250;0.6705949000006513;2433
251;0.6736400999998295;2433
252;0.677704800000356;2433
253;0.6802625000000262;2432
254;0.6820834000009199;2432
255;0.6845107000008284;2432
256;0.6877604000001156;2431
257;0.6906249000003299;2431
258;0.6936292999998841;2430
259;0.6962987000006251;2430
260;0.6982690999993793;2430
261;0.7007219999995868;2429
262;0.7033706999991409;2429
263;0.7063908000000083;2428
264;0.7093913000007888;2428
265;0.7122261000004073;2428
266;0.7152452000009362;2427
267;0.7172697999994853;2427
268;0.72042970000075;2427
269;0.7233691000001272;2427
270;0.7263748000004853;2426
271;0.7292770000003657;2426
272;0.7323094999992463;2425
273;0.7342435999998997;2425
274;0.737251099999412;2425
275;0.7392333999996481;2424
276;0.74114709999958;2424
277;0.7432496000001265;2424
278;0.7451514000003954;2424
279;0.7472369999995863;2423
280;0.749213700000837;2423
281;0.7510848000001715;2423
282;0.7544675000008283;2423
283;0.7571998000003077;2422
284;0.7595325000002049;2421
285;0.7622800000008283;2421
286;0.7643236999992951;2421
287;0.7662146000002394;2421
288;0.7692325000007258;2420
289;0.7712857999995322;2420
290;0.7733050000006187;2420
291;0.7752087000008032;2420
292;0.7788345999997546;2419
293;0.7812659999999596;2419
294;0.7831177000007301;2419
295;0.7862860999994155;2419
296;0.7893380999994406;2418
297;0.7913131000004796;2418
298;0.7946573999997781;2417
299;0.7972921000000497;2417
300;0.8002864999998565;2416
301;0.8036410000004253;2416
302;0.8066643999991356;2415
303;0.8096213000007992;2415
304;0.8122256999995443;2414
305;0.8142411000007996;2414
306;0.8161457000005612;2414
307;0.8196131000004243;2413
308;0.8236587999999756;2413
309;0.8265312999992602;2412
310;0.8292856999996729;2412
311;0.8324219000005542;2412
312;0.8353332999995473;2411
313;0.8373351000009279;2411
314;0.8403161999995064;2411
315;0.8421223999994254;2410
316;0.8443184000007022;2410
317;0.8461693999997806;2410
318;0.8481659999997646;2410
319;0.8502048999998806;2410
320;0.852255800000421;2409
321;0.8542034999991301;2409
322;0.8562689000009414;2408
323;0.8581983999993099;2408
324;0.8602174000006926;2408
325;0.8621304999996937;2407
326;0.8640830000003916;2407
327;0.8661725000001752;2407
328;0.8681622999993124;2407
329;0.870184600000357;2407
330;0.8721872999994957;2406
331;0.874206200000117;2406
332;0.8762203999995108;2406
333;0.8793862000002264;2406
334;0.882241499999509;2406
335;0.8844587999992655;2406
336;0.8873598000009224;2406
337;0.8901918999999907;2405
338;0.8923594999996567;2405
339;0.8951352000003681;2405
340;0.8972438000000693;2404
341;0.8991743999995379;2404
342;0.9016482000006363;2404
343;0.9046534999997675;2404
344;0.9077495000001363;2403
345;0.9107389000000694;2403
346;0.9137069000007614;2403
347;0.9165981000005559;2403
348;0.9196066000004066;2402
349;0.9222621000008075;2402
350;0.9245594999993045;2402
351;0.9274361999996472;2402
352;0.9303017999991425;2402
353;0.9320900000002439;2402
354;0.9343764999994164;2402
355;0.9371948000007251;2402
356;0.9395058999998582;2402
357;0.9422130999992078;2402
358;0.9443577999991248;2402
359;0.9472428000008222;2402
360;0.9502267999996548;2402
361;0.9533809999993537;2402
362;0.9561525999997684;2402
363;0.9583605000007083;2402
364;0.9610632000003534;2402
365;0.9644477000001643;2402
366;0.9673397000005934;2401
367;0.9703852000002371;2402
368;0.9734855999995489;2402
369;0.9765399000007164;2402
370;0.9794120000005933;2402
371;0.9825189000002865;2402
372;0.9855150999992475;2402
373;0.988517600000705;2402
374;0.9915381999999227;2402
375;0.994159399999262;2402
376;0.9962622999992163;2402
377;0.9981084999999439;2403
378;1.0004781000006915;2403
379;1.0034233999995195;2403
380;1.0062859999998182;2402
381;1.0094575000002806;2402
382;1.0124118999992788;2403
383;1.0154246000001876;2403
384;1.0182810999995127;2403
385;1.0212508000004163;2403
386;1.0233884000008402;2403
387;1.0263832000000548;2403
388;1.0292470999993384;2404
389;1.0312193000008847;2404
390;1.033502899999803;2404
391;1.0365055999991455;2404
392;1.0393545999995695;2404
393;1.042421899999681;2405
394;1.0451936000008573;2405
395;1.0482814999995753;2405
396;1.0513515000002371;2405
397;1.0543484999998327;2405
398;1.0573927000004915;2406
399;1.060654799999611;2406
400;1.0634752000005392;2406
401;1.0664496999997937;2406
402;1.0694574000008288;2406
403;1.0725051000008534;2405
404;1.0755532000002859;2406
405;1.0781901999998809;2406
406;1.081264700000247;2406
407;1.083356900000581;2406
408;1.0865876999996544;2407
409;1.0896885999991355;2407
410;1.092686899999535;2407
411;1.0952961000002688;2408
412;1.0983264000005875;2407
413;1.101351799999975;2407
414;1.1033179000005475;2408
415;1.1052039000005607;2408
416;1.1073606999998447;2408
417;1.1104109000007156;2408
418;1.1133614999998827;2408
419;1.116642499999216;2408
420;1.119448299999931;2408
421;1.122272000000521;2409
422;1.1253171999996994;2409
423;1.1282802999994601;2409
424;1.1302259000003687;2409
425;1.1322189999991679;2409
426;1.1355865999994421;2409
427;1.1396421000008559;2410
428;1.1426623999996082;2411
429;1.1452819000005547;2411
430;1.148470800000723;2411
431;1.1515154000007897;2412
432;1.1544451999998273;2412
433;1.1574299999992945;2412
434;1.1613534000007348;2412
435;1.164396599999236;2412
436;1.167426500000147;2412
437;1.1703950999999506;2413
438;1.1734371000002284;2413
439;1.1762572999996337;2414
440;1.1796310000008816;2414
441;1.1826347000005626;2415
442;1.1854488999997557;2415
443;1.1885058999996545;2415
444;1.1914952999995876;2416
445;1.194427700000233;2417
446;1.1974226999991515;2417
447;1.2003949000009015;2418
448;1.203425600000628;2418
449;1.2062471000008372;2418
450;1.2094159000007494;2419
451;1.2124722999997175;2419
452;1.2154339000007894;2420
453;1.2182635999997729;2420
454;1.2203035999991698;2420
455;1.2222072999993543;2421
456;1.2242298000001028;2421
457;1.2264192000002367;2422
458;1.2292930000003253;2422
459;1.2312337000003026;2422
460;1.2331900000008318;2423
461;1.235298800000237;2423
462;1.2383850000005623;2423
463;1.2414071000002878;2424
464;1.2445729999999458;2424
465;1.2473356999998941;2424
466;1.250281399999949;2425
467;1.253480800000034;2425
468;1.2575816999997187;2425
469;1.2606099000004178;2426
470;1.263204200000473;2426
471;1.2662213000003248;2426
472;1.2696606000008615;2427
473;1.2727424999993673;2427
474;1.275681999999506;2428
475;1.2781388999992487;2429
476;1.2802391999994143;2429
477;1.2821643999996013;2429
478;1.2841353000003437;2430
479;1.2865261000006285;2430
480;1.2892950999994355;2430
481;1.292695800000729;2430
482;1.2952586999999767;2430
483;1.298156900000322;2431
484;1.300410699999702;2431
485;1.303709499999968;2432
486;1.3078671000002942;2432
487;1.3113883000005444;2433
488;1.3143001999997068;2434
489;1.316165700000056;2434
490;1.318391500000871;2435
491;1.321169999999256;2435
492;1.3231003000000783;2435
493;1.3252592999997432;2436
494;1.3273040000003675;2436
495;1.32914399999936;2436
496;1.3311149000001024;2437
497;1.3333302999999432;2437
498;1.3367206000002625;2437
499;1.3411711000007926;2438
500;1.345738199999687;2438
501;1.3496737000004941;2439
502;1.3525821999992331;2439
503;1.3554308000002493;2439
504;1.358473000000231;2439
505;1.3622765000000072;2439
506;1.365355300000374;2440
507;1.3682145999991917;2440
508;1.3717706000006729;2440
509;1.374648700000762;2441
510;1.3776892000005319;2441
511;1.3802711999996973;2442
512;1.3823035999994318;2442
513;1.3841563999994833;2442
514;1.3863208000002487;2442
515;1.3892981999997573;2443
516;1.3915321999993466;2443
517;1.3941661000008025;2443
518;1.3962534999991476;2444
519;1.399199800000133;2444
520;1.4023797000008926;2444
521;1.4052494000006845;2445
522;1.408444500000769;2445
523;1.4112315000002127;2445
524;1.413268700000117;2446
525;1.4152682999992976;2446
526;1.4173343000002205;2446
527;1.420221300000776;2446
528;1.4222700999998779;2447
529;1.424395199999708;2447
530;1.427423600000111;2447
531;1.429164999999557;2448
532;1.431205000000773;2448
533;1.433441799999855;2448
534;1.436211899999762;2449
535;1.4381207000005816;2449
536;1.4401622999994288;2449
537;1.442146400000638;2449
538;1.4441561000003276;2449
539;1.4462533999994776;2449
540;1.448218600000473;2449
541;1.4515639000001102;2449
542;1.4543336999995518;2449
543;1.4576089000001957;2449
544;1.460486399999354;2449
545;1.46329329999935;2449
546;1.4662499999994907;2449
547;1.4695854000001418;2450
548;1.472326900000553;2450
549;1.4745820999996795;2450
550;1.4775160000008327;2450
551;1.4803412000001117;2450
552;1.4832413000003726;2450
553;1.4866576000003988;2450
554;1.489622999999483;2450
555;1.4926188999997976;2451
556;1.496244600000864;2451
557;1.4982046999994054;2451
558;1.5002229000001535;2451
559;1.5024556999997003;2450
560;1.5051705999994738;2450
561;1.5073554999999033;2450
562;1.5091697000007116;2450
563;1.5111610000003566;2451
564;1.513153699999748;2451
565;1.51513309999973;2451
566;1.517700500000501;2450
567;1.5203230000006442;2450
568;1.5223117999994429;2450
569;1.524384899999859;2451
570;1.526412799999889;2451
571;1.5293462999998155;2451
572;1.5322675999996136;2450
573;1.5345484000008582;2450
574;1.5374919999994745;2450
575;1.5403158000008261;2449
576;1.5437206000005972;2449
577;1.546676899999511;2449
578;1.5496633000002475;2449
579;1.552648599999884;2449
580;1.5553171999999904;2449
581;1.5574436000006244;2449
582;1.5604003000007651;2449
583;1.5633481000004394;2449
584;1.5651051000004372;2448
585;1.568649099999675;2448
586;1.5717031000003772;2448
587;1.574491900000794;2448
588;1.5776354999998148;2448
589;1.5803102000008948;2448
590;1.5831921000008151;2448
591;1.5852778000007675;2448
592;1.5884375999994518;2447
593;1.5914890000003652;2447
594;1.594408900000417;2446
595;1.5973589999994147;2446
596;1.6003082999995968;2446
597;1.6033848999995826;2446
598;1.6062889000004361;2446
599;1.609559900000022;2446
600;1.612322299999505;2445
601;1.6142557000002853;2445
602;1.6162163999997574;2445
603;1.619373400000768;2444
604;1.6224232000004122;2444
605;1.6254767999998876;2444
606;1.6281937999992806;2443
607;1.6303685999992013;2443
608;1.6321702000004734;2443
609;1.6344140000001062;2443
610;1.6373753999996552;2443
611;1.6402871999998752;2442
612;1.6422480000001087;2442
613;1.6441235000002052;2442
614;1.6462773000002926;2441
615;1.6481882999996742;2441
616;1.6502344000000448;2441
617;1.6531758000000991;2441
618;1.6554262000008748;2441
619;1.657228899999609;2441
620;1.6592399000001024;2440
621;1.6623185999997077;2440
622;1.6642637999993894;2440
623;1.6672214000009262;2440
624;1.6705399999991641;2440
625;1.6734051999992516;2440
626;1.676317299999937;2439
627;1.6793391999999585;2439
628;1.6812534000000596;2439
629;1.6832014999999956;2439
630;1.6852870999991865;2438
631;1.6887692000000243;2438
632;1.691314699999566;2438
633;1.6945034000000305;2438
634;1.6973242000003665;2437
635;1.699206299999787;2437
636;1.7015525999995589;2437
637;1.7047101000007387;2436
638;1.7078373000003921;2435
639;1.710715799999889;2435
640;1.7132084000004397;2435
641;1.71525549999933;2434
642;1.7172525000005407;2434
643;1.7192384000009042;2434
644;1.7222664000000805;2434
645;1.725351299999602;2433
646;1.72824109999965;2433
647;1.7302825999995548;2432
648;1.7321439999996073;2432
649;1.7347229000006337;2432
650;1.7378649999991467;2431
651;1.7404788999992888;2431
652;1.7434900000007474;2430
653;1.7451416999992944;2430
654;1.747234300000855;2430
655;1.7492246000001614;2430
656;1.7512824000004912;2430
657;1.7546003999996174;2429
658;1.757433700000547;2429
659;1.7603925000003073;2428
660;1.762543500000902;2428
661;1.7655500000000757;2427
662;1.7685471000004327;2427
663;1.7712749000002077;2426
664;1.7733559999996942;2426
665;1.776355500000136;2426
666;1.779297499999302;2426
667;1.7811497000002419;2425
668;1.7835737999994308;2425
669;1.7865263999992749;2424
670;1.7895110999997996;2424
671;1.7925068999993528;2423
672;1.7952991999991355;2423
673;1.7972153999999136;2423
674;1.7991903000001912;2423
675;1.8022455999998783;2422
676;1.8052370000004885;2422
677;1.8072474000000511;2422
678;1.8091559000004054;2422
679;1.8111050999996223;2422
680;1.8131365000008373;2422
681;1.8151252000006934;2421
682;1.8172881999998935;2421
683;1.8192407000005915;2421
684;1.8222471999997651;2421
685;1.8251677000007476;2420
686;1.8274669999991602;2420
687;1.830322800000431;2420
688;1.833162299999458;2419
689;1.836703299999499;2419
690;1.8398159999997006;2419
691;1.8427121999993687;2418
692;1.8452245999997103;2418
693;1.8481804999992164;2418
694;1.850395600000411;2417
695;1.8536583999994036;2417
696;1.8566295000000537;2417
697;1.8596261000002414;2416
698;1.8622166000004654;2416
699;1.8642885000008391;2415
700;1.866483199999493;2415
701;1.8694357000003947;2415
702;1.8724347000006674;2414
703;1.875528900000063;2414
704;1.8782754000003479;2413
705;1.8813184999999066;2412
706;1.8832337000003463;2412
707;1.8865420000001905;2412
708;1.8896717999996326;2411
709;1.8926358000007895;2411
710;1.8953400000009424;2410
711;1.8982907999998133;2410
712;1.900558600000295;2409
713;1.903498600000603;2409
714;1.9064264000007825;2409
715;1.909380400000373;2409
716;1.912272400000802;2408
