;time;amplitude
0;0.005028600000514416;2366
1;0.009598599999662838;2366
2;0.014794200000324054;2367
3;0.021007299999837414;2367
4;0.02657349999935832;2367
5;0.03145029999905091;2367
6;0.03534880000006524;2367
7;0.03963560000011057;2367
8;0.04359939999994822;2366
9;0.047505099999398226;2365
10;0.0515663999995013;2365
11;0.0553715000005468;2366
12;0.058361699999295524;2365
13;0.06225529999937862;2366
14;0.06523879999986093;2365
15;0.0691382999993948;2365
16;0.07330559999900288;2366
17;0.0776172999994742;2366
18;0.08143310000014026;2366
19;0.0853227000006882;2366
20;0.0893512999991799;2365
21;0.0934240000005957;2365
22;0.09751929999947606;2365
23;0.10150620000058552;2365
24;0.10565459999997984;2365
25;0.10946169999988342;2365
26;0.11332389999915904;2365
27;0.11696420000043872;2365
28;0.12041119999958028;2365
29;0.1240696000004391;2365
30;0.12845000000015716;2365
31;0.13269240000045102;2365
32;0.13602580000042508;2366
33;0.13957999999911408;2365
34;0.14340189999893482;2366
35;0.1472193999998126;2365
36;0.1504451999990124;2365
37;0.1543997999997373;2365
38;0.15820650000023306;2365
39;0.16248710000036226;2366
40;0.16654989999915415;2366
41;0.17040489999999409;2366
42;0.17413630000010016;2365
43;0.17742720000023837;2366
44;0.1810408000001189;2366
45;0.18432489999941026;2366
46;0.18831189999946218;2366
47;0.19207140000071377;2366
48;0.19536859999971057;2366
49;0.1994044999992184;2366
50;0.203453800000716;2366
51;0.2071230999990803;2366
52;0.21134019999954035;2366
53;0.21525459999975283;2366
54;0.21913390000008803;2366
55;0.22325869999986026;2366
56;0.22733549999975367;2366
57;0.2314024999996036;2366
58;0.2353899999998248;2366
59;0.23935739999978978;2366
60;0.24233249999997497;2366
61;0.24508269999932963;2366
62;0.24846509999952104;2365
63;0.2524028999996517;2366
64;0.25602989999970305;2366
65;0.2592991000001348;2366
66;0.2632155999999668;2366
67;0.26634569999987434;2366
68;0.27031539999916276;2366
69;0.27384039999924426;2366
70;0.27688560000024154;2366
71;0.2796414000004006;2366
72;0.2817503000005672;2366
73;0.28376290000051085;2366
74;0.28569900000002235;2366
75;0.2877506999993784;2366
76;0.2897317999995721;2366
77;0.29170429999976477;2365
78;0.2937471999994159;2365
79;0.2957489999989775;2365
80;0.2977530999996816;2365
81;0.29976759999954083;2365
82;0.302792500000578;2365
83;0.3057829999997921;2365
84;0.30881829999998445;2365
85;0.31081540000013774;2365
86;0.31374680000044464;2365
87;0.3158086000003095;2365
88;0.31886329999906593;2366
89;0.321889499999088;2366
90;0.3250062999995862;2365
91;0.3277999000001728;2365
92;0.3308381000006193;2365
93;0.33403439999892726;2365
94;0.3368037000000186;2365
95;0.33983249999982945;2365
96;0.3431287000003067;2365
97;0.3459927999992942;2365
98;0.34912230000009004;2365
99;0.3520351000006485;2366
100;0.35492689999955473;2366
101;0.35804259999895294;2365
102;0.3609902999996848;2365
103;0.36412380000001576;2366
104;0.3669931999993423;2366
105;0.3701173999997991;2366
106;0.3728862999996636;2366
107;0.3759881000005407;2366
108;0.37894629999937024;2366
109;0.38205199999902106;2366
110;0.3859804999992775;2366
111;0.38912059999893245;2366
112;0.3920080000007147;2366
113;0.3949752999997145;2366
114;0.39804820000063046;2366
115;0.4009241000003385;2366
116;0.40408930000012333;2367
117;0.4068012000007002;2367
118;0.40974389999973937;2366
119;0.4129278999989765;2366
120;0.41594500000064727;2366
121;0.4190197999996599;2366
122;0.42195859999992535;2366
123;0.4250515000003361;2366
124;0.42792759999974805;2366
125;0.4310533999996551;2366
126;0.43392409999978554;2366
127;0.4367105999990599;2366
128;0.4397212000003492;2366
129;0.4429737999998906;2366
130;0.44605219999903056;2366
131;0.4489496999995026;2366
132;0.45207940000000235;2366
133;0.4549652000005153;2366
134;0.45808889999898383;2366
135;0.4609435000002122;2366
136;0.4650877000003675;2366
137;0.4679526999989321;2366
138;0.47113100000024133;2366
139;0.47391849999985425;2366
140;0.47696019999966666;2366
141;0.4800807999999961;2365
142;0.4829520000002958;2366
143;0.4860759000002872;2366
144;0.48894859999927576;2366
145;0.49207819999901403;2366
146;0.49492189999909897;2366
147;0.4981127999999444;2366
148;0.5009675999990577;2365
149;0.5039536999993288;2365
150;0.5067381999997451;2365
151;0.5097657000005711;2365
152;0.5130374000000302;2365
153;0.5159583999993629;2365
154;0.5187814999990223;2365
155;0.5219677999994019;2365
156;0.5249483000006876;2366
157;0.5280406000001676;2366
158;0.5309545000000071;2366
159;0.5340713999994477;2366
160;0.5369541999989451;2366
161;0.5397544000006747;2366
162;0.5429609000002529;2366
163;0.5457743000006303;2366
164;0.5489481999993586;2366
165;0.5519721000000573;2366
166;0.5549504999999044;2366
167;0.5579522999996698;2366
168;0.5610825000003388;2366
169;0.5640798999993422;2366
170;0.5670776000006299;2366
171;0.5700598999992508;2366
172;0.5726446999997279;2367
173;0.576068899999882;2367
174;0.5790613999997731;2367
175;0.5820657000003848;2367
176;0.5850776999996015;2368
177;0.5880106000004162;2367
178;0.5910867000002327;2367
179;0.5940706999990653;2367
180;0.5970639000006486;2367
181;0.6000605999997788;2367
182;0.6030596000000514;2366
183;0.6060617000002821;2366
184;0.6090595000005123;2366
185;0.6120582000003196;2366
186;0.6150543999992806;2366
187;0.6180595000005269;2366
188;0.6210663999991084;2366
189;0.6240588000000571;2367
190;0.6270279999989725;2367
191;0.630065100000138;2367
192;0.6330624999991414;2367
193;0.6360597000002599;2366
194;0.6390336999993451;2367
195;0.6420643999990716;2367
196;0.6450731999993877;2366
197;0.648055800000293;2366
198;0.6507308999989618;2366
199;0.6540550999998231;2366
200;0.6567773999995552;2365
201;0.6600598000004538;2366
202;0.6630561000001762;2366
203;0.6660726999998587;2366
204;0.6687796999995044;2365
205;0.6707645999995293;2366
206;0.6740804000000935;2366
207;0.6770391999998537;2366
208;0.6800318000005063;2366
209;0.6827892000001157;2366
210;0.6860555999992357;2365
211;0.6890330999995058;2366
212;0.6920642999994016;2366
213;0.6950558999997156;2365
214;0.6977580999991915;2365
215;0.7010621999997966;2365
216;0.7040111999995133;2365
217;0.7069303999996919;2365
218;0.7100540999999794;2366
219;0.7130606999999145;2366
220;0.7160549000000174;2366
221;0.7190568000005442;2366
222;0.7220594999998866;2366
223;0.7250573999990593;2366
224;0.7280525999995007;2366
225;0.7308095999997022;2366
226;0.734061400000428;2366
227;0.7370571999999811;2366
228;0.7397946999990381;2366
229;0.7430590999993001;2366
230;0.7457529000002978;2366
231;0.7490698999990855;2366
232;0.7520791000006284;2366
233;0.7550675000002229;2367
234;0.7580545000000711;2367
235;0.7606427999999141;2367
236;0.7640582999993057;2367
237;0.7670519999992393;2367
238;0.7700597000002745;2367
239;0.7727622000002157;2367
240;0.775986799999373;2366
241;0.7790554000002885;2366
242;0.7820606999994197;2366
243;0.7850693999989744;2366
244;0.7880614999994577;2366
245;0.7910649000004923;2366
246;0.79407910000009;2366
247;0.7970767999995587;2366
248;0.8000616999997874;2366
249;0.8030548999995517;2366
250;0.8060666999990644;2366
251;0.8090587000006053;2366
252;0.8120545000001584;2366
253;0.815056999999797;2366
254;0.818063799999436;2366
255;0.8210713999997097;2366
256;0.8240762000004906;2366
257;0.8270615999990696;2366
258;0.8300608999998076;2365
259;0.8330573999992339;2366
260;0.8360599000006914;2366
261;0.838927099999637;2366
262;0.8420530000003055;2366
263;0.8450606000005791;2366
264;0.8480553999997937;2367
265;0.8510556999990513;2367
266;0.8539168000006612;2367
267;0.8569382000005135;2367
268;0.8600581999999122;2367
269;0.8630680000005668;2367
270;0.8660588999991887;2367
271;0.8690569999998843;2367
272;0.8720539000005374;2367
273;0.875060599999415;2368
274;0.8780626999996457;2368
275;0.8810825999989902;2368
276;0.884092000000237;2367
277;0.8870511999994051;2367
278;0.8897990999994363;2367
279;0.8930841999990662;2367
280;0.8960807999992539;2368
281;0.8988463999994565;2367
282;0.9018513999999413;2367
283;0.9050913999999466;2367
284;0.9080505999991146;2367
285;0.9110863000005338;2367
286;0.9140974000001734;2367
287;0.9170570999995107;2367
288;0.9200705000002927;2367
289;0.9227886999997281;2367
290;0.9259588999993866;2367
291;0.9288397999989684;2367
292;0.9318217000000004;2367
293;0.9337942999991355;2367
294;0.9368254000000888;2367
295;0.9388204000006226;2367
296;0.9412969999993948;2367
297;0.9452316999995674;2367
298;0.9489515000004758;2367
299;0.9522233000006963;2367
300;0.9548037000004115;2367
301;0.9579506999998557;2367
302;0.960932199999661;2367
303;0.9639726000004885;2367
304;0.9669632999994064;2366
305;0.9700974000006681;2367
306;0.9727892999999312;2367
307;0.9760841999996046;2367
308;0.9789409000004525;2367
309;0.9821083000006183;2367
310;0.9849326000003202;2366
311;0.9879619000003004;2366
312;0.9910882999993191;2366
313;0.9939539000006334;2366
314;0.9970923999990191;2366
315;0.999971799999912;2366
316;1.0028340999997454;2367
317;1.0057858000000124;2366
318;1.008959999999206;2366
319;1.011835900000733;2366
320;1.0149614999991172;2367
321;1.0180908000002091;2366
322;1.0209666999999172;2366
323;1.0240954000000784;2366
324;1.0269487999994453;2367
325;1.0299407000002248;2367
326;1.0329989999991085;2367
327;1.0359637000001385;2367
328;1.0391146999991179;2368
329;1.0419526000005135;2367
330;1.045096599998942;2368
331;1.0479636999989452;2368
332;1.0507391999999527;2368
333;1.0530701999996381;2368
334;1.0559818000001542;2368
335;1.0589122000001225;2368
336;1.0619568999991316;2368
337;1.0650728000000527;2368
338;1.067971000000398;2368
339;1.070810999999594;2368
340;1.073865799999112;2367
341;1.0769641999995656;2367
342;1.079994899999292;2367
343;1.0829580999998143;2367
344;1.0860914999993838;2367
345;1.0889432999993005;2367
346;1.0919503000004624;2368
347;1.0949662000002718;2368
348;1.0981599999995524;2368
349;1.1009978000001865;2368
350;1.103953100000581;2368
351;1.1068660999990243;2369
352;1.109966500000155;2368
353;1.1130966000000626;2368
354;1.1159575000001496;2368
355;1.11880679999922;2368
356;1.1217015999991418;2369
357;1.124988300000041;2369
358;1.128104400000666;2370
359;1.1309638999991876;2370
360;1.1340961000005336;2370
361;1.1369479999993928;2370
362;1.1397882000001118;2370
363;1.141953199999989;2370
364;1.144929599999159;2370
365;1.1477945000006002;2371
366;1.1497954999995272;2371
367;1.1528281999999308;2371
368;1.1548196000003372;2371
369;1.1568293999989692;2371
370;1.1588181000006443;2372
371;1.161780099999305;2372
372;1.163783300000432;2371
373;1.165956200000437;2372
374;1.1688176000006933;2371
375;1.170833300000595;2371
376;1.1727338999990025;2371
377;1.1760561999999481;2371
378;1.1789871999990282;2371
379;1.181901399999333;2371
380;1.1850104999994073;2371
381;1.1881059999996069;2371
382;1.1910133000001224;2371
383;1.194121599999562;2372
384;1.1971168999989459;2371
385;1.2001292999993893;2371
386;1.2031222000005073;2371
387;1.2060103999992862;2371
388;1.2091041000003315;2372
389;1.2121143999993365;2372
390;1.2149083000003884;2372
391;1.2181060999992042;2372
392;1.2210900999998557;2372
393;1.224118099999032;2372
394;1.2270843999995122;2372
395;1.2300935999992362;2373
396;1.2330891999990854;2373
397;1.2360890999989351;2373
398;1.2391155999994226;2373
399;1.2420906999996078;2373
400;1.2449854999995296;2373
401;1.2481126000002405;2373
402;1.2510951999993267;2374
403;1.2539713000005577;2374
404;1.256874599999719;2374
405;1.2600961999996798;2374
406;1.263090700000248;2375
407;1.2660863999990397;2375
408;1.2691004999996949;2374
409;1.2720898000006855;2374
410;1.275089200000366;2375
411;1.2778944000001502;2375
412;1.281090000000404;2375
413;1.2840842000005068;2375
414;1.2869527999991988;2375
415;1.2899096999990434;2375
416;1.292826299999433;2375
417;1.2958469999994122;2375
418;1.2988480999993044;2376
419;1.300805599999876;2375
420;1.3042107000001124;2375
421;1.3069018999995023;2376
422;1.3101489999990008;2376
423;1.31321509999907;2376
424;1.3161792999999307;2376
425;1.3189653999997972;2377
426;1.321989099998973;2377
427;1.324800000000323;2377
428;1.3279404999993858;2377
429;1.3310720999998011;2377
430;1.333999099999346;2377
431;1.3367837000005238;2377
432;1.3397500999999465;2377
433;1.3431299999992916;2378
434;1.3459808999996312;2378
435;1.3490851000005932;2378
436;1.3519472999996651;2378
437;1.3549741999995604;2379
438;1.3568037000004551;2379
439;1.358711900000344;2379
440;1.3606818999996904;2379
441;1.3627438999992592;2379
442;1.3648004999995464;2379
443;1.3678230000004987;2380
444;1.3697677999989537;2380
445;1.3727577999998175;2380
446;1.3748746999990544;2381
447;1.377860700000383;2381
448;1.3808587999992596;2381
449;1.3838973000001715;2381
450;1.3858796000004077;2381
451;1.3900054000005184;2382
452;1.393258899999637;2382
453;1.3962604999996984;2382
454;1.3990935999991052;2382
455;1.4020624999993743;2383
456;1.4050659999993513;2383
457;1.4079467999999906;2383
458;1.4109447999999247;2383
459;1.4139365999999427;2384
460;1.4169787999999244;2384
461;1.419972300000154;2384
462;1.4227785000002768;2384
463;1.4260229999999865;2385
464;1.4290118999997503;2385
465;1.4320138000002771;2386
466;1.43476869999904;2386
467;1.4379969999990863;2386
468;1.4409715000001597;2386
469;1.4439999999995052;2386
470;1.4469864999991842;2386
471;1.4499390000000858;2386
472;1.4529891999991378;2387
473;1.4559398999990663;2387
474;1.4589677999993;2387
475;1.4619669000003341;2387
476;1.464975200000481;2388
477;1.4679713000004995;2388
478;1.4709817000002658;2388
479;1.4739786999998614;2388
480;1.4769512000002578;2389
481;1.479982499999096;2389
482;1.482984199999919;2390
483;1.4859839999990072;2390
484;1.4889929999990272;2390
485;1.4919793999997637;2391
486;1.4949780000006285;2391
487;1.4979776999989554;2391
488;1.5009874000006675;2392
489;1.5039507999990747;2392
490;1.5069827000006626;2392
491;1.5099795000005543;2392
492;1.5129216999994242;2393
493;1.5159812999991118;2393
494;1.5189826999994693;2393
495;1.5219766999998683;2394
496;1.5249803999995493;2394
497;1.5280886999989889;2395
498;1.5310893999994732;2395
499;1.5340899999991962;2395
500;1.5370949000007386;2396
501;1.5398289999993722;2396
502;1.5430928000005224;2396
503;1.5460846000005404;2397
504;1.549117099999421;2397
505;1.5520832000001974;2398
506;1.5550922999991599;2398
507;1.5580829999998969;2398
508;1.5608379000004788;2399
509;1.5641166000004887;2399
510;1.5671077000006335;2399
511;1.570080899999084;2399
512;1.5728084000002127;2400
513;1.575773399999889;2400
514;1.5778370000007271;2400
515;1.5808477999999013;2401
516;1.5838440000006813;2401
517;1.5868955000005371;2401
518;1.5899814999993396;2401
519;1.5927733999997145;2402
520;1.5948201999999583;2402
521;1.5968174999998155;2403
522;1.5987342999997054;2403
523;1.6006006999996316;2403
524;1.6026683000000048;2403
525;1.604640699999436;2404
526;1.6065968999992037;2404
527;1.608616699999402;2404
528;1.6106141000000207;2404
529;1.6126156999998784;2405
530;1.6146114999992278;2405
531;1.6166183000004821;2405
532;1.6186538000001747;2405
533;1.6205556000004435;2405
534;1.6226095000001806;2406
535;1.6245746000004146;2406
536;1.6266608000005363;2406
537;1.6286378999993758;2406
538;1.6305922999999893;2406
539;1.63260579999951;2407
540;1.6345825999997032;2407
541;1.636571200000617;2407
542;1.6386342000005243;2407
543;1.6406525000002148;2407
544;1.642653099999734;2408
545;1.6446109999997134;2408
546;1.6466835999999603;2408
547;1.6486555999999837;2408
548;1.6506262000002607;2408
549;1.6527074000005086;2409
550;1.6547066000002815;2409
551;1.6566930999997567;2409
552;1.6587024999989808;2410
553;1.6619315999996616;2410
554;1.664743899998939;2410
555;1.6666124000003038;2410
556;1.6686664999997447;2411
557;1.671730199999729;2411
558;1.673740700000053;2412
559;1.6758122999999614;2412
560;1.677818699999989;2413
561;1.6796715999989829;2413
562;1.6816423999989638;2413
563;1.683620100000553;2413
564;1.6855881999999838;2413
565;1.6877079999994749;2414
566;1.6897021000004315;2414
567;1.6918160000004718;2414
568;1.6936533999996755;2414
569;1.6956344999998691;2414
570;1.6976775999992242;2414
571;1.6996956999992108;2415
572;1.70179570000073;2415
573;1.7037373000002844;2415
574;1.7056295999991562;2415
575;1.707736799999111;2416
576;1.7096818999998504;2416
577;1.711617999999362;2416
578;1.7136756999989302;2417
579;1.715630799999417;2417
580;1.7176309999995283;2417
581;1.719635899999048;2417
582;1.7216707000006863;2417
583;1.7247083999991446;2418
584;1.7267190999991726;2418
585;1.7286610999999539;2418
586;1.7306214000000182;2418
587;1.7327007000003505;2418
588;1.7346634000004997;2419
589;1.7366163000006054;2419
590;1.7386298999990686;2419
591;1.7407418000002508;2419
592;1.7425901999995403;2420
593;1.7446227999989787;2420
594;1.7466709000000264;2420
595;1.7486399999997957;2420
596;1.7506763999990653;2420
597;1.7526503999997658;2420
598;1.7546339999989868;2420
599;1.7566102000000683;2421
600;1.7586140999992494;2421
601;1.7606458999998722;2422
602;1.762670899999648;2422
603;1.7646655999997165;2422
604;1.7666195000001608;2422
605;1.7687251000006654;2422
606;1.7707016999993357;2422
607;1.7726963000004616;2423
608;1.77469629999905;2423
609;1.7779609999997774;2423
610;1.780685600000652;2424
611;1.7826731000004656;2424
612;1.7857320999992226;2424
613;1.7888413999990007;2425
614;1.7918067999999039;2425
615;1.7937072999993688;2426
616;1.7957124000004114;2426
617;1.7977417000001878;2426
618;1.7997417999995378;2426
619;1.801732500000071;2426
620;1.803748500000438;2426
621;1.8056237000000692;2427
622;1.8077198999999382;2427
623;1.8097161999994569;2427
624;1.811664799999562;2428
625;1.8138294000000315;2428
626;1.8167178000003332;2428
627;1.8187199000003602;2428
628;1.8206688999998732;2429
629;1.8227129999995668;2429
630;1.8246593000003486;2429
631;1.826709299999493;2430
632;1.8287865999991482;2430
633;1.8307246999993367;2430
634;1.8326823999996122;2430
635;1.8346050000000105;2430
636;1.8366712999995798;2430
637;1.8386659000007057;2431
638;1.8406634999992093;2431
639;1.842681199999788;2432
640;1.8446813999998994;2432
641;1.8466128000000026;2432
642;1.848772800000006;2432
643;1.8507420000005368;2432
644;1.852616099999068;2432
645;1.8546533999997337;2433
646;1.856646300000648;2433
647;1.8586562999989837;2433
648;1.860692399999607;2433
649;1.8626860000003944;2433
650;1.864666199999192;2434
651;1.866704899999604;2434
652;1.8686624999991182;2435
653;1.870613200000662;2435
654;1.8726772999998502;2436
655;1.8747342999995453;2436
656;1.8767301000007137;2436
657;1.8786230000005162;2436
658;1.8806380000005447;2437
659;1.8826876999992237;2437
660;1.884764799999175;2437
661;1.8867033000005904;2437
662;1.8886139999995066;2437
663;1.8907137000005605;2438
664;1.8925947999996424;2438
665;1.8946439999999711;2438
666;1.8966479999999137;2438
667;1.8988059000002977;2439
668;1.9007151999994676;2439
669;1.9027568000001338;2439
670;1.9046314999995957;2440
671;1.9067863000000216;2440
672;1.9087058999994042;2440
673;1.910746100000324;2440
674;1.9136594999999943;2440
675;1.9156173999999737;2441
676;1.9176430000006803;2441
677;1.9196692999994411;2441
678;1.9216517999993812;2442
679;1.9236550999994506;2442
680;1.9261996999994153;2442
681;1.9287444000001415;2442
682;1.930663999999524;2443
683;1.9327381999992213;2444
684;1.9346593999998731;2444
685;1.936684599999353;2444
686;1.9385829999991984;2444
687;1.9406122000000323;2444
688;1.9426884000004065;2444
689;1.9447108000003936;2444
690;1.9466252999991411;2444
691;1.948655599999256;2444
692;1.950698000000557;2445
693;1.9539421999998012;2445
694;1.956710500000554;2445
695;1.959745500000281;2446
696;1.9617180000004737;2446
697;1.9636236999995162;2446
698;1.9657590999995591;2446
699;1.9677317000005132;2447
700;1.9696093999991717;2447
701;1.9716640999995434;2447
702;1.9736405000003288;2448
703;1.9760251000006974;2448
704;1.9787682000005589;2448
705;1.9806243999992148;2449
706;1.9825755999991088;2449
707;1.9845590999993874;2449
708;1.9865656000001763;2450
709;1.9885565000004135;2450
710;1.9906501999994362;2450
711;1.9937064999994618;2450
712;1.9956474999999045;2451
713;1.997643299999254;2451
714;2.000744200000554;2452
715;2.0028048000003764;2452
716;2.004795599999852;2452
717;2.0067510999997467;2452
