;time;amplitude
0;0.003756699999939883;2419
1;0.007703299999775481;2417
2;0.011907199999768636;2415
3;0.01579440000023169;2414
4;0.019576999999117106;2412
5;0.023925100000269595;2411
6;0.02756489999956102;2409
7;0.03142180000031658;2408
8;0.03528619999997318;2407
9;0.039443800000299234;2405
10;0.04243470000074012;2403
11;0.045269500000358676;2402
12;0.0483048999994935;2401
13;0.051294000000780215;2399
14;0.054700599999705446;2398
15;0.05871649999971851;2397
16;0.06273589999909746;2395
17;0.06682770000043092;2394
18;0.07070000000021537;2392
19;0.07472360000065237;2390
20;0.07869229999960226;2389
21;0.08272059999944759;2388
22;0.0856523999991623;2386
23;0.089737199999945;2385
24;0.09373170000071696;2383
25;0.09767319999991741;2381
26;0.10015820000080566;2380
27;0.10368930000004184;2379
28;0.10770720000073197;2377
29;0.11168949999955657;2376
30;0.11556500000006054;2374
31;0.1186400999995385;2373
32;0.12270820000048843;2372
33;0.1266844999991008;2370
34;0.13015959999938786;2368
35;0.13304950000019744;2367
36;0.13616489999913028;2366
37;0.13963169999988168;2364
38;0.14349220000076457;2363
39;0.14735509999991336;2361
40;0.15012279999973543;2360
41;0.15333359999931417;2359
42;0.15655119999973977;2358
43;0.1602671000000555;2357
44;0.16428430000087246;2355
45;0.1683616999998776;2354
46;0.17149500000050466;2353
47;0.17451679999976477;2352
48;0.17746729999998934;2351
49;0.18045270000038727;2350
50;0.18324120000033872;2349
51;0.1866595999999845;2348
52;0.1905296000004455;2348
53;0.1934956000004604;2347
54;0.19646069999907922;2346
55;0.1995428999998694;2346
56;0.2023812999996153;2345
57;0.20538549999946554;2344
58;0.2083679999996093;2343
59;0.21142599999984668;2342
60;0.21438239999952202;2341
61;0.217102700000396;2340
62;0.22042399999918416;2339
63;0.22338809999928344;2338
64;0.2264030999995157;2337
65;0.22934119999990799;2336
66;0.2322158999995736;2336
67;0.2353067000003648;2335
68;0.23838830000022426;2334
69;0.24137639999935345;2334
70;0.24435839999932796;2333
71;0.24736510000002454;2333
72;0.25009590000081516;2332
73;0.2533739999998943;2332
74;0.25637540000025183;2331
75;0.259352700000818;2330
76;0.2623561000000336;2330
77;0.2653551999992487;2329
78;0.26836550000007264;2328
79;0.27135570000064035;2327
80;0.27434940000057395;2327
81;0.2773813000003429;2327
82;0.2800802999990992;2327
83;0.2830928999992466;2327
84;0.2863804999997228;2327
85;0.2893798999994033;2327
86;0.29239070000039646;2327
87;0.2949284999995143;2327
88;0.29835839999941527;2326
89;0.30132679999951506;2326
90;0.3043357999995351;2325
91;0.307325600000695;2325
92;0.31031219999931636;2324
93;0.3133312999998452;2324
94;0.31620049999946787;2323
95;0.3193511999998009;2323
96;0.322350300000835;2323
97;0.3253664000003482;2322
98;0.3283231999994314;2322
99;0.3313438999994105;2322
100;0.33435819999976957;2321
101;0.3373377999996592;2321
102;0.34032959999967716;2321
103;0.3430838999993284;2321
104;0.34612139999990177;2320
105;0.34934599999905913;2320
106;0.3523241999992024;2320
107;0.35532600000078673;2320
108;0.3579907999992429;2320
109;0.3613623000001098;2320
110;0.36433450000004086;2320
111;0.36718280000059167;2320
112;0.37032410000028904;2319
113;0.3733157000006031;2319
114;0.37635880000016186;2320
115;0.37933519999933196;2319
116;0.3823573999998189;2320
117;0.38532560000021476;2320
118;0.3883301999994728;2320
119;0.39135510000051;2320
120;0.39435799999955634;2319
121;0.3973385999997845;2319
122;0.40017640000041865;2320
123;0.40335550000054354;2320
124;0.4063502000008157;2320
125;0.4093522999992274;2320
126;0.412331899999117;2321
127;0.4153537000001961;2321
128;0.4183646999990742;2322
129;0.4213614000000234;2322
130;0.42435269999987213;2322
131;0.42736800000056974;2322
132;0.4303536000006716;2322
133;0.43307629999981145;2322
134;0.4362407999997231;2322
135;0.43936109999958717;2323
136;0.4423549999992247;2324
137;0.44536990000051446;2324
138;0.44835710000006657;2324
139;0.4513239000007161;2325
140;0.45426620000034745;2325
141;0.4572731999996904;2326
142;0.46027370000047085;2326
143;0.4633453999995254;2327
144;0.4660911999999371;2328
145;0.47021379999932833;2328
146;0.47336189999987255;2329
147;0.4763662999994267;2329
148;0.4793592999994871;2329
149;0.4821095000006608;2330
150;0.48511800000051153;2330
151;0.4885525999998208;2330
152;0.4926548000003095;2331
153;0.49658799999997427;2332
154;0.5001171000003524;2332
155;0.5035974999991595;2333
156;0.506463600000643;2334
157;0.5095696999997017;2335
158;0.5121486999996705;2336
159;0.515485500000068;2336
160;0.5180770000006305;2337
161;0.5216342000003351;2337
162;0.5256800000006479;2338
163;0.5296304000003147;2338
164;0.5333092000000761;2339
165;0.5365426000007574;2340
166;0.540625400000863;2341
167;0.5446245000002818;2342
168;0.5483691999997973;2343
169;0.5512732000006508;2345
170;0.5542795999990631;2346
171;0.5572709999996732;2346
172;0.5602629999993951;2347
173;0.5632631999997102;2348
174;0.5662988999993104;2348
175;0.5696036999997887;2349
176;0.5736653000003571;2350
177;0.5776863999999478;2351
178;0.5816434000007575;2352
179;0.5855895000004239;2353
180;0.5894162000004144;2354
181;0.5924039999990782;2356
182;0.5953886000006605;2357
183;0.5983663000006345;2358
184;0.6014329999998154;2359
185;0.6043494999994437;2360
186;0.6073544999999285;2361
187;0.6101625999999669;2362
188;0.6135560999991867;2362
189;0.6176976000006107;2363
190;0.62199099999998;2364
191;0.6269940999991377;2366
192;0.6315759999997681;2367
193;0.6354654999995546;2369
194;0.6383136000004015;2371
195;0.6416028999992704;2372
196;0.6445258999992802;2373
197;0.6487538000001223;2375
198;0.6511731999999029;2376
199;0.6546744000006584;2377
200;0.6585484000006545;2378
201;0.6626704999998765;2379
202;0.6664925999994011;2380
203;0.6695060000001831;2381
204;0.6735269000000699;2383
205;0.6764743000003364;2384
206;0.6795055000002321;2385
207;0.6832591999991564;2386
208;0.6877225000007456;2389
209;0.6916204000008292;2392
210;0.6957266000008531;2394
211;0.6995559999995749;2395
212;0.7024246000000858;2397
213;0.7067243000001326;2398
214;0.7106936000000132;2399
215;0.7147681999995257;2401
216;0.7185781999996834;2402
217;0.722729299999628;2404
218;0.7267013000000588;2406
219;0.7306408999993437;2408
220;0.7346500000003289;2409
221;0.7387294000000111;2411
222;0.7427200999991328;2413
223;0.7465181000006851;2414
224;0.7502139999996871;2416
225;0.7536705999991682;2417
226;0.7577209999999468;2419
227;0.7616859999998269;2420
228;0.7657084000002214;2421
229;0.76866660000087;2422
230;0.7726951999993616;2424
231;0.7766750999999203;2426
232;0.7796847999998135;2427
233;0.7833420999995724;2429
234;0.787751500000013;2431
235;0.7915907999995397;2432
236;0.7952647999991314;2434
237;0.7986911999996664;2435
238;0.8027227000002313;2437
239;0.8067135999990569;2439
240;0.8107060999991518;2441
241;0.8136672000000544;2443
242;0.8172224999998434;2444
243;0.8206952000000456;2445
244;0.8247831999997288;2447
245;0.8287290999996912;2449
246;0.8327561999994941;2450
247;0.8354486000007455;2452
248;0.8397466000005807;2454
249;0.8436949999995704;2456
250;0.8477153999992879;2457
251;0.8516763000006904;2459
252;0.8557989000000816;2461
253;0.8597472999990714;2463
254;0.8637161000006017;2465
255;0.8672528999995848;2467
256;0.870675800000754;2468
257;0.8747337999993761;2470
258;0.8786975000002712;2472
259;0.8827486999998655;2474
260;0.8855437000001984;2475
261;0.8882675000004383;2477
262;0.8916446999992331;2478
263;0.8957417999990867;2480
264;0.8997772999991867;2482
265;0.9032924000002822;2483
266;0.9066571000003023;2485
267;0.9107335000007879;2486
268;0.91479900000013;2488
269;0.9188391999996384;2490
270;0.9227240000000165;2493
271;0.926735799999733;2495
272;0.9307244999999966;2496
273;0.9345606999995653;2497
274;0.9387356000006548;2498
275;0.9427357999993546;2499
276;0.946725100000549;2501
277;0.9502750999999989;2502
278;0.9537932999992336;2503
279;0.9578177000003052;2504
280;0.96183530000053;2505
281;0.9658015000004525;2507
282;0.9697433999990608;2507
283;0.9737117999993643;2509
284;0.9777245000004768;2510
285;0.9814955999991071;2511
286;0.9857578999999532;2511
287;0.9897522999999637;2512
288;0.9937221000000136;2512
289;0.9973539999991772;2513
290;1.0001976999992621;2514
291;1.0037037999991298;2515
292;1.0077364000007947;2517
293;1.0117176999992807;2518
294;1.015719299999546;2519
295;1.0185409000005166;2520
296;1.0227338999993663;2521
297;1.0267220999994606;2522
298;1.0312632999994094;2524
299;1.0343372000006639;2525
300;1.0373961999994208;2526
301;1.0403296000004048;2527
302;1.043341299999156;2528
303;1.0463994999990973;2528
304;1.0503179999996064;2529
305;1.053701099999671;2530
306;1.0577099999991333;2531
307;1.0617167000000336;2532
308;1.0655234999994718;2533
309;1.0685001999991073;2533
310;1.0725683000000572;2534
311;1.0766210000001593;2534
312;1.080575800000588;2535
313;1.0831942000004346;2535
314;1.0877586999995401;2536
315;1.0915831000002072;2537
316;1.095740400000068;2537
317;1.09976049999932;2537
318;1.1037261999990733;2538
319;1.1077485999994678;2538
320;1.1117169999997714;2539
321;1.1144100000001345;2540
322;1.1172764999992069;2540
323;1.1205274000003556;2540
324;1.1236822999999276;2541
325;1.1278015000007144;2542
326;1.1302021999999852;2542
327;1.133173700000043;2542
328;1.1366761999997834;2543
329;1.1407264999998006;2543
330;1.1447160999996413;2543
331;1.1487772000000405;2543
332;1.1512423000003764;2543
333;1.1544706000004226;2543
334;1.1585039000001416;2543
335;1.1625351999991835;2543
336;1.1664043000000675;2544
337;1.169454200000473;2544
338;1.1724587000007887;2544
339;1.1755150999997568;2544
340;1.178629699999874;2544
341;1.1815012999995815;2544
342;1.1856802000002062;2543
343;1.1897179999996297;2543
344;1.193730000000869;2543
345;1.197744099999909;2543
346;1.20170379999945;2543
347;1.2057105000003503;2542
348;1.2097353999997722;2542
349;1.213724600000205;2542
350;1.2173175000007177;2542
351;1.220665499999086;2542
352;1.224763599999278;2541
353;1.2287180999992415;2541
354;1.2324654000003648;2541
355;1.2357071000005817;2540
356;1.2397094999996625;2539
357;1.2437418999998044;2539
358;1.2477051999994728;2539
359;1.2517078000000765;2538
360;1.25575199999912;2538
361;1.259728900000482;2537
362;1.2636674999994284;2537
363;1.2663240999991103;2536
364;1.2695836999992025;2536
365;1.273639799999728;2535
366;1.2776259000002028;2534
367;1.2816364999998768;2534
368;1.284569499999634;2533
369;1.2885972000003676;2532
370;1.2926308999994944;2532
371;1.296612300000561;2531
372;1.3002945000007458;2531
373;1.3035569000003306;2530
374;1.3065449000005174;2529
375;1.3106184000007488;2529
376;1.3146192000003794;2529
377;1.318611200000305;2528
378;1.3226223000001482;2528
379;1.326705999999831;2527
380;1.3306281000004674;2526
381;1.3345554999996239;2525
382;1.3375314000004437;2524
383;1.3405662000004668;2524
384;1.3442919999997684;2523
385;1.347200399999565;2523
386;1.350311199999851;2522
387;1.353546300000744;2522
388;1.3565607000000455;2521
389;1.360320399999182;2520
390;1.363550899999609;2519
391;1.3675528000003396;2518
392;1.370540699999765;2516
393;1.3735870000000432;2515
394;1.3776333000005252;2514
395;1.3816330000008747;2513
396;1.3845488999995723;2513
397;1.3886270000002696;2512
398;1.3926150999996025;2511
399;1.3966201999992336;2509
400;1.4003226999993785;2508
401;1.4035304999997607;2507
402;1.4066765999996278;2506
403;1.4107652999991842;2505
404;1.4147635999997874;2503
405;1.418769899999461;2502
406;1.4227319000001444;2500
407;1.4267280000003666;2499
408;1.4307215999997425;2497
409;1.4346843000002991;2496
410;1.438720000000103;2495
411;1.4427226999996492;2493
412;1.4467299999996612;2492
413;1.4502647000008437;2491
414;1.4546991999995953;2490
415;1.4587484000003315;2488
416;1.462722099999155;2486
417;1.4663395999996283;2484
418;1.4703179999996792;2482
419;1.4735491999999795;2481
420;1.4777348000006896;2480
421;1.4817370000000665;2478
422;1.4845444000002317;2477
423;1.4876676999992924;2476
424;1.4905094999994617;2475
425;1.4947878000002675;2473
426;1.4988310999997339;2471
427;1.5027546000001166;2470
428;1.5067376999995759;2468
429;1.510722099999839;2466
430;1.514740200000233;2465
431;1.5187506999991456;2464
432;1.52271490000021;2461
433;1.5267174000000523;2459
434;1.530910400000721;2458
435;1.5346838000004936;2456
436;1.538780400000178;2455
437;1.542713900000308;2453
438;1.5467778999991424;2452
439;1.5503016999991814;2450
440;1.554746100000557;2448
441;1.5587145000008604;2446
442;1.5624293000000762;2445
443;1.565243900000496;2444
444;1.568714099999852;2443
445;1.5726513000008708;2441
446;1.5756359000006341;2440
447;1.5781105000005482;2438
448;1.581755900000644;2437
449;1.5855582999993203;2436
450;1.588537499999802;2434
451;1.5925256999998965;2433
452;1.5955364000001282;2431
453;1.5985099000008631;2430
454;1.6017150999996375;2428
455;1.6044352000008075;2427
456;1.6077189999996335;2426
457;1.6117364000001544;2424
458;1.6157624999996187;2422
459;1.6192274000004545;2420
460;1.6222574999992503;2419
461;1.6257435000006808;2418
462;1.6297544999997626;2416
463;1.6332519000006869;2414
464;1.636752599999454;2413
465;1.640739599999506;2411
466;1.6447275999998965;2410
467;1.648717800000668;2409
468;1.6523914999997942;2407
469;1.6555246999996598;2405
470;1.6585567000001902;2404
471;1.6615574000006745;2402
472;1.6653919000000315;2401
473;1.6682705999992322;2399
474;1.6712883000000147;2399
475;1.674809500000265;2398
476;1.6788240999994741;2396
477;1.6828845000000001;2394
478;1.6865641000003961;2392
479;1.689698899999712;2391
480;1.6937589000008302;2389
481;1.6977468999994016;2387
482;1.701628200000414;2386
483;1.7056917999998404;2384
484;1.7097914999994828;2382
485;1.7137788;2380
486;1.7172867999997834;2378
487;1.7202493000004324;2377
488;1.7232507999997324;2375
489;1.7266894999993383;2373
490;1.730739700000413;2372
491;1.7346839999991062;2371
492;1.7387130000006437;2369
493;1.7427404999998544;2368
494;1.7466822999995202;2367
495;1.750310499999614;2366
496;1.7536889000002702;2364
497;1.7577390000005835;2363
498;1.76173960000051;2362
499;1.7657165000000532;2361
500;1.7697456000005332;2360
501;1.7737075999993976;2358
502;1.7777014000002964;2357
503;1.7806674000003113;2356
504;1.7846984999996494;2355
505;1.788731700000426;2354
506;1.7927378000003955;2352
507;1.795202600000266;2351
508;1.7987298000007286;2351
509;1.8016741999999795;2350
510;1.805747700000211;2349
511;1.8092331999996532;2347
512;1.8137593999999808;2346
513;1.8176597999990918;2345
514;1.8217373999996198;2343
515;1.8254151000001002;2342
516;1.8286609999995562;2341
517;1.8327826999993704;2340
518;1.8367242000003898;2339
519;1.840895499999533;2338
520;1.8447144000001572;2337
521;1.8487542999992002;2337
522;1.8516577999998844;2336
523;1.855739900000117;2335
524;1.8586966000002576;2334
525;1.8627402999991318;2333
526;1.866324500000701;2332
527;1.8695774000007077;2332
528;1.8737110000001849;2331
529;1.8777348000003258;2330
530;1.8817390999993222;2330
531;1.8846766000006028;2329
532;1.8882427000007738;2329
533;1.8917242000006809;2328
534;1.8957196999999724;2328
535;1.8994968000006338;2327
536;1.9026671999999962;2327
537;1.9062981000006403;2326
538;1.90969910000058;2325
539;1.9137556000005134;2325
540;1.9176721999992878;2324
541;1.9217305000001943;2323
542;1.9257409000001644;2323
543;1.9297012999995786;2322
544;1.9332794999991165;2323
545;1.936698699999397;2322
546;1.9407088000007207;2322
547;1.9447292999993806;2321
548;1.948749900000621;2321
549;1.951161000000866;2321
550;1.9544580999991013;2321
551;1.9587917999997444;2320
552;1.9627173000008042;2320
553;1.9663302000008116;2320
554;1.969681299999138;2320
555;1.9737334999990708;2319
556;1.9777245000004768;2319
557;1.981760900000154;2319
558;1.98465749999923;2319
559;1.988737300000139;2319
560;1.992726099999345;2320
561;1.9967166999995243;2319
562;1.9993594000006851;2320
563;2.0037439999996423;2320
564;2.0077163000005385;2320
565;2.0117609000008088;2320
566;2.016309900000124;2320
567;2.0196902000006958;2321
568;2.023730999999316;2321
569;2.0277115000008052;2321
570;2.031744300000355;2321
571;2.0347041000004538;2321
572;2.038757300000725;2321
573;2.0426931000001787;2321
574;2.046284199999718;2322
575;2.0493478999997023;2323
576;2.0527086000001873;2323
577;2.0567336000003706;2323
578;2.060754199999792;2323
579;2.064766299999974;2323
580;2.067677499999263;2324
581;2.0717676999993273;2324
582;2.075715400000263;2324
583;2.0797598000008293;2325
584;2.0832399999999325;2325
585;2.0866934999994555;2326
586;2.090733700000783;2326
587;2.0942474999992555;2327
588;2.0977134999993723;2327
589;2.1013602999992145;2328
590;2.10467509999944;2329
591;2.1086274000008416;2329
592;2.1112302000001364;2330
593;2.1144280999997136;2331
594;2.117346799999723;2331
595;2.120096900000135;2331
596;2.1233066999993753;2332
597;2.126342300000033;2332
598;2.1293108999998367;2333
599;2.132297000000108;2334
600;2.1352120999999897;2335
601;2.13826169999993;2335
602;2.142782900000384;2336
603;2.146715499999118;2337
604;2.150218599999789;2338
605;2.1533558999999514;2339
606;2.156347599999208;2340
607;2.1593283000001975;2340
608;2.1625411000004533;2341
609;2.166369799999302;2342
610;2.1695056000007753;2343
611;2.1725557999998273;2343
612;2.1765809999997145;2344
613;2.180551600000399;2345
614;2.1833019999994576;2346
615;2.1864936999991187;2347
616;2.1894539000004443;2348
617;2.192475600000762;2349
618;2.1954862999991747;2350
619;2.198500000000422;2351
620;2.201436299999841;2352
621;2.2044361000007484;2353
622;2.207295099999101;2354
623;2.2104340999994747;2354
624;2.2134263000007195;2355
625;2.2160751999999775;2356
626;2.2182238999994297;2357
627;2.2212228999997023;2357
628;2.224210899999889;2358
629;2.227816200000234;2359
630;2.2312803999993776;2361
631;2.2343899000006786;2362
632;2.237426300000152;2363
633;2.2404174999992392;2364
634;2.24350400000003;2365
635;2.2464342000002944;2366
636;2.2491991000006237;2368
637;2.25248079999983;2369
638;2.2554660999994667;2370
639;2.258447599999272;2372
640;2.2612465000001976;2372
641;2.2642589999995835;2373
642;2.2672571999992215;2374
643;2.270245199999408;2375
644;2.273054299999785;2376
645;2.275220300000001;2377
646;2.2779644999991433;2378
647;2.2802185000000463;2379
648;2.283027499999662;2380
649;2.286212400000295;2381
650;2.2898287999996683;2382
651;2.293814700000439;2384
652;2.297678900000392;2385
653;2.3017055000000255;2387
654;2.3056990999994014;2389
655;2.3095670999991853;2390
656;2.3126202000003104;2392
657;2.315501299999596;2393
658;2.3184163000005356;2394
659;2.321409099999073;2395
660;2.3244059000007837;2396
661;2.327436800000214;2397
662;2.330453900000066;2398
663;2.3331020000005083;2399
664;2.336250399999699;2400
665;2.339258300000438;2402
666;2.3421698000001925;2403
667;2.345119199999317;2405
668;2.348862499999086;2406
669;2.351667000000816;2408
670;2.3556922000007035;2409
671;2.3593958000001294;2411
672;2.362485600000582;2412
673;2.3655130000006466;2413
674;2.368436400000064;2414
675;2.3714178999998694;2415
676;2.374154400000407;2416
677;2.3761902999995073;2418
678;2.379264499999408;2419
679;2.3828259999991133;2420
680;2.3871467000008124;2422
681;2.392101499999626;2424
682;2.3957341000004817;2425
683;2.400741299999936;2427
684;2.40474549999999;2429
685;2.4087987000002613;2430
686;2.4142572000000655;2432
687;2.4190584999996645;2434
688;2.4239073999997345;2436
689;2.428044199999931;2438
690;2.4317926000003354;2440
691;2.4360445000002073;2441
692;2.4394916000001103;2443
693;2.44250380000085;2445
694;2.447031899999274;2446
695;2.451766199999838;2448
696;2.455970499999239;2450
697;2.459944899999755;2452
698;2.463819099999455;2454
699;2.467298800000208;2456
700;2.470888500000001;2457
701;2.474619200000234;2459
702;2.478851100000611;2461
703;2.482795800000531;2464
704;2.486782800000583;2465
705;2.490742100000716;2467
706;2.494746700000178;2469
707;2.498487599999862;2471
708;2.5017007999995258;2473
709;2.505745799999204;2474
710;2.509744999999384;2476
711;2.5137759999997797;2478
712;2.51770199999919;2479
713;2.521400999999969;2481
714;2.52471130000049;2483
715;2.5287537000003795;2484
716;2.5316961999997147;2486
717;2.5347168000007514;2487
718;2.538728199999241;2489
719;2.5427376000006916;2490
