;time;amplitude
0;0.003037899999981164;2385
1;0.0055888999995659105;2385
2;0.00896189999912167;2385
3;0.013182799999412964;2386
4;0.01701849999881233;2386
5;0.019577799999751733;2386
6;0.02307660000042233;2387
7;0.02666529999987688;2387
8;0.030039199999009725;2387
9;0.0325924999997369;2388
10;0.036010199999509496;2388
11;0.03967629999897326;2388
12;0.0430235999992874;2388
13;0.046661099999255384;2388
14;0.05001339999944321;2389
15;0.05364150000059453;2389
16;0.05704929999956221;2389
17;0.061177499999757856;2389
18;0.06510600000001432;2389
19;0.06760899999972025;2390
20;0.07111090000034892;2390
21;0.07411049999973329;2390
22;0.07809489999999641;2390
23;0.08118519999879936;2391
24;0.08397429999968153;2391
25;0.08757469999909517;2392
26;0.09104429999933927;2392
27;0.09464370000023337;2392
28;0.09803789999932633;2392
29;0.10161820000030275;2393
30;0.1050866000005044;2393
31;0.1080867999990005;2393
32;0.11191739999958372;2394
33;0.11547780000000785;2394
34;0.11852770000041346;2395
35;0.12147670000013022;2395
36;0.1248937999989721;2395
37;0.12848510000003444;2396
38;0.13150920000043698;2396
39;0.13445379999939178;2397
40;0.13737769999897864;2397
41;0.14048519999960263;2397
42;0.1434289999997418;2397
43;0.1471086000001378;2397
44;0.14955969999937224;2397
45;0.15285079999921436;2398
46;0.1554158999988431;2398
47;0.15840600000046834;2398
48;0.1616933000004792;2398
49;0.16462329999922076;2399
50;0.16757959999995364;2399
51;0.17045619999953487;2400
52;0.17361170000003767;2400
53;0.1764218999996956;2400
54;0.17960200000015902;2400
55;0.18248200000016368;2401
56;0.18582690000039292;2401
57;0.18947560000015073;2402
58;0.19280319999961648;2403
59;0.19579870000052324;2403
60;0.19939849999900616;2403
61;0.20144710000022314;2403
62;0.20439269999951648;2404
63;0.20735199999944598;2405
64;0.21100549999937357;2405
65;0.21446329999889713;2405
66;0.2174101000000519;2406
67;0.22087110000029497;2406
68;0.22383300000001327;2406
69;0.2267162999996799;2406
70;0.22979169999962323;2406
71;0.2323720999993384;2407
72;0.23592099999950733;2407
73;0.23877489999904355;2408
74;0.24179720000029192;2408
75;0.2447085000003426;2409
76;0.24782210000012128;2409
77;0.2518750999988697;2409
78;0.255837499998961;2409
79;0.25853040000038163;2409
80;0.26175899999907415;2409
81;0.2647987000000285;2409
82;0.26776880000034;2410
83;0.27077749999989464;2410
84;0.2735787999990862;2410
85;0.2765156000004936;2410
86;0.2796096000001853;2410
87;0.28259350000007544;2410
88;0.2856028999995033;2411
89;0.2885826999990968;2411
90;0.2916341999989527;2411
91;0.2945825999995577;2411
92;0.2975389000002906;2412
93;0.3003592999993998;2412
94;0.3037891000003583;2412
95;0.30664450000040233;2413
96;0.309592600000542;2413
97;0.3124153999997361;2413
98;0.31537810000008903;2413
99;0.31883819999893603;2414
100;0.32184869999946386;2414
101;0.32438489999913145;2414
102;0.3275575999996363;2414
103;0.3305665999996563;2414
104;0.33360369999900286;2415
105;0.33655279999948107;2415
106;0.3395767000001797;2415
107;0.34243769999920914;2415
108;0.3454428999993979;2416
109;0.3474525999990874;2416
110;0.35084699999970326;2417
111;0.35392589999901247;2417
112;0.35793759999978647;2417
113;0.3604235000002518;2418
114;0.36391659999935655;2419
115;0.3667420999991009;2419
116;0.3698157999988325;2419
117;0.37348869999914314;2419
118;0.376834400000007;2420
119;0.3794925999991392;2420
120;0.3825173999994149;2420
121;0.38572019999992335;2421
122;0.38842060000024503;2421
123;0.39191529999880004;2422
124;0.3944178000001557;2422
125;0.3978876000001037;2423
126;0.40043409999998403;2424
127;0.40342950000012934;2424
128;0.40650819999973464;2424
129;0.4094175999998697;2425
130;0.4130504999993718;2425
131;0.4169101999996201;2425
132;0.4204939999999624;2426
133;0.4234329999999318;2426
134;0.42689099999915925;2426
135;0.4294556000004377;2427
136;0.4325109999990673;2427
137;0.43570329999965907;2427
138;0.4399818999991112;2427
139;0.4424442999988969;2428
140;0.44592779999948107;2428
141;0.449596799999199;2428
142;0.4528864000003523;2429
143;0.4554724999998143;2429
144;0.4588547000003018;2429
145;0.46148989999892365;2430
146;0.46440419999998994;2430
147;0.46789949999947567;2430
148;0.47049299999889627;2430
149;0.473906100000022;2430
150;0.47644989999935206;2431
151;0.4798627000000124;2431
152;0.48237239999980375;2432
153;0.4858598999999231;2432
154;0.488472199998796;2433
155;0.4914128999989771;2433
156;0.49501000000054773;2434
157;0.4973761999990529;2434
158;0.49943200000052457;2434
159;0.501384400000461;2435
160;0.5044454999988375;2435
161;0.5078814999997121;2435
162;0.5104037000000972;2436
163;0.5134175999992294;2436
164;0.5166258999997808;2436
165;0.5195330999995349;2436
166;0.522384099998817;2436
167;0.5245601999995415;2437
168;0.5274004000002606;2437
169;0.5305747000002157;2437
170;0.5324392000002263;2437
171;0.5357482999988861;2437
172;0.5384431999991648;2438
173;0.541910399999324;2438
174;0.544930199999726;2439
175;0.547668999999587;2439
176;0.5514499000000797;2439
177;0.5538560000004509;2439
178;0.5564494999998715;2440
179;0.5594571000001451;2440
180;0.562748799999099;2440
181;0.5656502999991062;2440
182;0.5684459000003699;2440
183;0.5714064000003418;2440
184;0.5733933999999863;2440
185;0.5754292999990867;2441
186;0.5783656000003248;2441
187;0.5803677000003518;2441
188;0.5832989999998972;2442
189;0.5853656999988743;2442
190;0.5873732999989443;2442
191;0.5893517000004067;2443
192;0.5913624000004347;2443
193;0.593368100000589;2443
194;0.5966078999990714;2444
195;0.599610199999006;2444
196;0.602613900000506;2444
197;0.6064136999993934;2445
198;0.6083832000003895;2445
199;0.6104780999994546;2445
200;0.6134485999991739;2445
201;0.6154089999999997;2445
202;0.6184567000000243;2445
203;0.6214135999998689;2446
204;0.6246857000005548;2446
205;0.6273617999995622;2447
206;0.6308439999993425;2447
207;0.6333878000004916;2447
208;0.6357602999996743;2448
209;0.6383783999990555;2448
210;0.6403694000000542;2448
211;0.6424931000001379;2448
212;0.6453356999991229;2449
213;0.6473671000003378;2449
214;0.6505132999991474;2449
215;0.6533466999990196;2449
216;0.6553390999997646;2450
217;0.6573346999994101;2450
218;0.6593401999998605;2450
219;0.6613605000002281;2450
220;0.664594699999725;2450
221;0.6673351999997976;2451
222;0.6695208999990427;2451
223;0.6723571000002266;2451
224;0.6743354999998701;2452
225;0.6765660999990359;2452
226;0.679443099999844;2452
227;0.6825857999992877;2452
228;0.6864215000005061;2453
229;0.6895267999989301;2453
230;0.6927405999995244;2453
231;0.6954172999994626;2453
232;0.6975722999995924;2453
233;0.7003815999996732;2453
234;0.7022763999993913;2453
235;0.7043592999998509;2453
236;0.7065614999992249;2454
237;0.7095143000005919;2454
238;0.7125259999993432;2455
239;0.7153555999993841;2455
240;0.7175339000004897;2455
241;0.72060380000039;2455
242;0.7234881999993377;2455
243;0.7267004000004817;2456
244;0.7294239999991987;2456
245;0.7314269999988028;2456
246;0.7334541000000172;2456
247;0.7365589999990334;2456
248;0.7394881999989593;2457
249;0.7426912999999331;2457
250;0.7455580999994709;2457
251;0.7483706000002712;2457
252;0.7505282999991323;2457
253;0.7537849000000278;2458
254;0.7563910999997461;2458
255;0.7585175000003801;2458
256;0.7615071000000171;2458
257;0.7633974999989732;2459
258;0.765349100000094;2459
259;0.7675959999996849;2460
260;0.770576599999913;2460
261;0.773500299999796;2460
262;0.7755294999988109;2461
263;0.7783877999991091;2461
264;0.7812398999994912;2461
265;0.7833621999998286;2461
266;0.7855445000004693;2461
267;0.7883368999991944;2461
268;0.7912954000003083;2461
269;0.7933599999996659;2461
270;0.7966495000000577;2462
271;0.7994679000003089;2461
272;0.802355499999976;2462
273;0.8055339000002277;2462
274;0.8084393999997701;2462
275;0.810371399998985;2462
276;0.8135445999996591;2462
277;0.816470699999627;2463
278;0.8195271000004141;2463
279;0.8223803999990196;2463
280;0.8253096999997069;2463
281;0.8285384999999224;2464
282;0.8313944000001356;2464
283;0.8345461999997497;2464
284;0.8375335000000632;2464
285;0.8403369999996357;2465
286;0.8427264000001742;2464
287;0.8453783000004478;2465
288;0.8475407999994786;2465
289;0.8503626999990956;2465
290;0.8523922999993374;2466
291;0.8555268999989494;2466
292;0.8583600999991177;2466
293;0.8605300999988685;2466
294;0.8633864999992511;2466
295;0.8653782999990653;2467
296;0.8675419999999576;2467
297;0.8703480000003765;2467
298;0.8723750999997719;2467
299;0.8743558999995003;2467
300;0.8773722000005364;2467
301;0.8793874999992113;2468
302;0.881358900000123;2468
303;0.8836370999997598;2467
304;0.8863540999991528;2467
305;0.8895634999989852;2467
306;0.8923424999993586;2467
307;0.8955759999989823;2468
308;0.8984746000005543;2468
309;0.9013452999988658;2468
310;0.9043005999992602;2468
311;0.9063771000000997;2468
312;0.9084074000002147;2468
313;0.9113546999997197;2468
314;0.9134245000004739;2468
315;0.9154655000002094;2469
316;0.9185297999993054;2469
317;0.9213227000000188;2468
318;0.924659000000247;2468
319;0.9273456999999325;2468
320;0.9299095999995188;2468
321;0.9334204999995563;2469
322;0.935385499999029;2469
323;0.9375684999995428;2470
324;0.9403659999989031;2470
325;0.9425308999998379;2470
326;0.9453746999988653;2470
327;0.947377399999823;2471
328;0.9493984000000637;2470
329;0.9522326000005705;2470
330;0.9543603999991319;2471
331;0.9565486999999848;2471
332;0.9593765999998141;2471
333;0.961433999998917;2471
334;0.9634348999989015;2472
335;0.9653995999997278;2472
336;0.9683105999993131;2471
337;0.9704282000002422;2471
338;0.9722010999994382;2471
339;0.9743055999988428;2471
340;0.9764259999992646;2471
341;0.978374199999962;2472
342;0.9802652999987913;2472
343;0.9824456000005739;2472
344;0.9844054999994114;2472
345;0.9873155999994196;2472
346;0.9893413999998302;2472
347;0.9931503999996494;2472
348;0.995380500000465;2472
349;0.9977863000003708;2472
350;1.0003931999999622;2472
351;1.0023755999991408;2472
352;1.0055288999992626;2472
353;1.0083517999992182;2472
354;1.0115676000004896;2472
355;1.0143256999999721;2472
356;1.0163298999996186;2472
357;1.018565700000181;2472
358;1.0213791000005585;2472
359;1.0233664999996108;2473
360;1.0267499999990832;2473
361;1.0293251999992208;2473
362;1.0314106000005268;2473
363;1.0343480999999883;2473
364;1.0363036999988253;2473
365;1.0385250999988784;2474
366;1.0413494999993418;2474
367;1.0433849999990343;2474
368;1.046562499999709;2474
369;1.049560699999347;2474
370;1.052578299999368;2474
371;1.055549400000018;2474
372;1.058564099999785;2474
373;1.0612591999997676;2474
374;1.063304600000265;2474
375;1.0652828000002046;2475
376;1.0686643999997614;2474
377;1.0715179999988322;2474
378;1.0745397999999113;2475
379;1.0775677000001451;2475
380;1.0805844999995315;2475
381;1.083553700000266;2475
382;1.0865541999992274;2475
383;1.0895658999997977;2475
384;1.092541699999856;2475
385;1.0954017999993084;2475
386;1.0983698999989429;2475
387;1.1004087000001164;2475
388;1.1034903999989183;2476
389;1.1069592000003468;2475
390;1.111079599999357;2475
391;1.114681400000336;2475
392;1.1174204999988433;2476
393;1.1208169999990787;2476
394;1.1244096999998874;2476
395;1.1279087999992043;2476
396;1.1314762000001792;2476
397;1.1348873999995703;2477
398;1.13741569999911;2477
399;1.1409153000004153;2477
400;1.1444969000003766;2477
401;1.1479060000001482;2477
402;1.1504335999998148;2477
403;1.1524286000003485;2477
404;1.1545480000004318;2477
405;1.1573632999989059;2477
406;1.1594270999994478;2477
407;1.1625655999996525;2477
408;1.1654608999997436;2478
409;1.16738179999993;2477
410;1.1695596999998088;2477
411;1.1723449000000983;2477
412;1.1742716999997356;2477
413;1.1764836000002106;2477
414;1.1792640999992727;2477
415;1.1813535000001139;2477
416;1.1835396999995282;2477
417;1.1862896000002365;2477
418;1.1894348000005266;2477
419;1.1912695999999414;2477
420;1.1932870000000548;2477
421;1.195463899999595;2477
422;1.1983285999995132;2477
423;1.2014140999999654;2477
424;1.2033062999998947;2478
425;1.2052088999989792;2478
426;1.2072666000003665;2477
427;1.2094139999990148;2477
428;1.2113678000005166;2477
429;1.213391799999954;2478
430;1.2153669999988779;2478
431;1.2173235999998724;2478
432;1.219266099999004;2478
433;1.2213252000001376;2478
434;1.2234532000002218;2478
435;1.225382599999648;2478
436;1.2273432000001776;2478
437;1.2304306999994878;2478
438;1.2323670999994647;2478
439;1.2343818999997893;2477
440;1.2374395999995613;2477
441;1.2393326999990677;2477
442;1.2413357000004908;2478
443;1.24341319999985;2478
444;1.2464406999988569;2478
445;1.248341000000437;2478
446;1.250418499999796;2478
447;1.2523710999994364;2478
448;1.2543489999989106;2479
449;1.256426099998862;2479
450;1.2584633000005851;2479
451;1.2614472999994177;2479
452;1.2633528000005754;2479
453;1.265329500000007;2479
454;1.2673020000001998;2479
455;1.2693128999999317;2479
456;1.2713911999999254;2479
457;1.273445200000424;2479
458;1.2764322000002721;2479
459;1.2783280000003288;2479
460;1.2802524999988236;2480
461;1.2823413999994955;2479
462;1.2844193000000814;2479
463;1.2873120000003837;2479
464;1.289287699999477;2480
465;1.2914339999988442;2480
466;1.2943324999996548;2479
467;1.2962877999998454;2479
468;1.2994617999993352;2479
469;1.301280300000144;2479
470;1.3032788000000437;2479
471;1.3054744999990362;2479
472;1.3083334999992076;2480
473;1.3103707999998733;2480
474;1.3124403999991046;2480
475;1.314193799998975;2480
476;1.3163038000002416;2480
477;1.318449000000328;2480
478;1.320308299998942;2480
479;1.3222719999994297;2480
480;1.3244739999990998;2480
481;1.326448599998912;2480
482;1.3293343000004825;2480
483;1.3325671999991755;2480
484;1.335427099998924;2480
485;1.3376336000001174;2480
486;1.3406897000004392;2480
487;1.3433838999990257;2480
488;1.346531799999866;2480
489;1.3494112999997014;2480
490;1.3518447000005835;2480
491;1.3544543999996677;2480
492;1.3563880000001518;2480
493;1.3585050000001502;2480
494;1.361666700000569;2480
495;1.3643597999998747;2480
496;1.3677790999990975;2480
497;1.3706320999990567;2481
498;1.3735801999991963;2481
499;1.3763388999996096;2481
500;1.3783411999993405;2481
501;1.381546900000103;2481
502;1.3845963000003394;2481
503;1.387528299999758;2481
504;1.390384999998787;2480
505;1.392368599999827;2481
506;1.395498800000496;2480
507;1.3974524000004749;2480
508;1.3992911999994249;2480
509;1.402386399999159;2480
510;1.40436469999986;2480
511;1.406330199999502;2480
512;1.4084000999991986;2480
513;1.4102786999992531;2480
514;1.4128694999999425;2480
515;1.4154378000002907;2480
516;1.418390900000304;2480
517;1.420739400000457;2480
518;1.4234642999999778;2480
519;1.426520299999538;2480
520;1.429380499999752;2480
521;1.4325370000005933;2481
522;1.4355164999997214;2481
523;1.4383724999988772;2480
524;1.4405526999998983;2480
525;1.4433682999988378;2481
526;1.4453491999993275;2481
527;1.4484080000001995;2481
528;1.4514218999993318;2481
529;1.4535806000003504;2481
530;1.456403500000306;2481
531;1.4596380999992107;2481
532;1.4625661999998556;2481
533;1.4653844999993453;2481
534;1.4685752000004868;2481
535;1.4713976999992155;2481
536;1.4733904999993683;2480
537;1.4767563999994309;2481
538;1.4796017999997275;2481
539;1.4823876999998902;2481
540;1.485377699998935;2480
541;1.4873850000003586;2480
542;1.4904262000000017;2480
543;1.4935975999997027;2480
544;1.496585299999424;2480
545;1.4984549000000698;2480
546;1.5003923999993276;2480
547;1.5023275000003196;2480
548;1.5042677000001277;2480
549;1.5063922999997885;2481
550;1.5084088000003248;2481
551;1.5105795999988914;2480
552;1.5134493999994447;2480
553;1.5154951000004075;2480
554;1.5175471999991714;2480
555;1.5192855999994208;2480
556;1.5213070999998308;2480
557;1.523472999999285;2480
558;1.5253144999987853;2480
559;1.5273113999992347;2480
560;1.5304338000005373;2480
561;1.533459700000094;2480
562;1.5368407999994815;2481
563;1.5404662000000826;2481
564;1.542718299999251;2481
565;1.545459299999493;2481
566;1.5484581999990041;2481
567;1.5517323999993096;2481
568;1.5543140999998286;2481
569;1.5565549000002648;2481
570;1.5593546999989485;2481
571;1.5614114999989397;2482
572;1.5633118999994622;2482
573;1.5652472999991005;2481
574;1.5673839999999473;2481
575;1.5694626999993488;2482
576;1.571402699999453;2482
577;1.5732822999998461;2482
578;1.5753186000001733;2481
579;1.5774643999993714;2481
580;1.5793271000002278;2481
581;1.581363199999032;2481
582;1.5834319999994477;2482
583;1.5855023999993136;2482
584;1.587306899999021;2482
585;1.589269799998874;2482
586;1.591432999999597;2482
587;1.5942859999995562;2482
588;1.596306999999797;2482
589;1.5982880999999907;2482
590;1.6020929000005708;2481
591;1.6060161000004882;2481
592;1.6098851999995532;2481
593;1.6139193999988493;2481
594;1.618298399998821;2482
595;1.6228401999997004;2482
596;1.6267723999990267;2482
597;1.629641100000299;2482
598;1.6325603000004776;2482
599;1.6358985999995639;2482
600;1.6399330999993253;2482
601;1.6426305999993929;2482
602;1.6457752000005712;2481
603;1.6485199999988254;2482
604;1.6517999999996391;2482
605;1.6548404000004666;2481
606;1.6577734000002238;2481
607;1.6608020999992732;2481
608;1.6637886999997136;2481
609;1.666817400000582;2480
610;1.6698200999999244;2480
611;1.6725286000000779;2480
612;1.6755709999997634;2480
613;1.6785652999988088;2481
614;1.6814329999997426;2480
615;1.6845603000001574;2480
616;1.6875405999999202;2481
617;1.6904555999990407;2480
618;1.6936000000005151;2480
619;1.6965641999995569;2480
620;1.699601199999961;2480
621;1.702565899999172;2480
622;1.705562099999952;2480
623;1.7086017000001448;2480
624;1.711602600000333;2480
625;1.7144428999999946;2481
626;1.7175893999992695;2481
627;1.7205708000001323;2481
628;1.7236049000002822;2481
629;1.726607700000386;2481
630;1.729594200000065;2481
631;1.732564399999319;2481
632;1.7355695999995078;2481
633;1.7385611999998218;2481
634;1.7415583999991213;2481
635;1.744555199999013;2481
636;1.747607600000265;2481
637;1.7504632999989553;2481
638;1.7534500999990996;2481
639;1.7564093999990291;2481
640;1.7594506000004912;2480
641;1.7627981000005093;2480
642;1.7658006000001478;2480
643;1.768812700000126;2480
644;1.7717880999989575;2480
645;1.7747509000000719;2480
646;1.7775170999993861;2480
647;1.7805160999996588;2480
648;1.7837003999993613;2480
649;1.7865014999988489;2481
650;1.789532099999633;2480
651;1.7927306999990833;2481
652;1.7955830999999307;2480
653;1.7985227999997733;2481
654;1.80156899999929;2481
655;1.8046990999991976;2480
656;1.8075692000002164;2481
657;1.810709899998983;2481
658;1.8134343000001536;2481
659;1.8155656999988423;2481
660;1.8184142999998585;2481
661;1.8204246999994211;2481
662;1.8224222999997437;2481
663;1.825410199999169;2481
664;1.8272670000005746;2482
665;1.8292743000001792;2482
666;1.8313056999995752;2482
667;1.8332711000002746;2482
668;1.8352722999989055;2482
669;1.8372472999999445;2482
670;1.839243099999294;2482
671;1.8412757000005513;2482
672;1.8432971999991423;2482
673;1.8452515999997559;2482
674;1.8473445999989053;2482
675;1.8492733000002772;2482
676;1.851350699998875;2482
677;1.8533551000000443;2482
678;1.8556668000001082;2482
679;1.8586582999996608;2481
680;1.8617032999991352;2481
681;1.8643637999994098;2481
682;1.8674270999999862;2481
683;1.8693793000002188;2481
684;1.8713319999988016;2481
685;1.8732185999997455;2481
686;1.8752055000004475;2481
687;1.8772508000001835;2482
688;1.8792025000002468;2482
689;1.8813087999988056;2482
690;1.883278799999971;2482
691;1.8852655999999115;2481
692;1.887226799999553;2481
693;1.8891628999990644;2482
694;1.8911745000004885;2482
695;1.8932160999993357;2482
696;1.8951637999998638;2482
697;1.897169699999722;2482
698;1.8992278000005172;2482
699;1.9012435000004189;2482
700;1.9033036999990145;2481
701;1.9052978999989136;2481
702;1.9072434999998222;2481
703;1.909320499999012;2481
704;1.911324999999124;2481
705;1.9132764000005409;2481
706;1.9153107999991335;2481
707;1.9174430999992182;2481
708;1.9204673999993247;2481
709;1.922424599999431;2481
710;1.924333299999489;2481
711;1.9263176000004023;2481
712;1.9284341000002314;2481
713;1.931370700000116;2481
714;1.9334612999991805;2481
715;1.9354210999990755;2481
716;1.9385146999993594;2481
717;1.9414663999996264;2481
