;time;amplitude
0;0.003965300000345451;2352
1;0.006636000000071363;2352
2;0.010659700001269812;2352
3;0.014909700001226156;2352
4;0.018437200000334997;2352
5;0.022471100000984734;2352
6;0.02685130000099889;2352
7;0.031078600000910228;2352
8;0.03457270000035351;2352
9;0.03847029999997176;2352
10;0.04160760000013397;2352
11;0.04467120000117575;2352
12;0.04901059999974677;2352
13;0.0529913000009401;2352
14;0.05543190000025788;2352
15;0.05998290000025008;2351
16;0.0639432999996643;2352
17;0.0679933000010351;2352
18;0.07159970000066096;2352
19;0.07463070000085281;2351
20;0.07874160000028496;2351
21;0.0818371000004845;2351
22;0.08581080000112706;2351
23;0.08949680000114313;2351
24;0.0924804000005679;2351
25;0.09692760000143608;2351
26;0.10084110000025248;2351
27;0.10455560000082187;2351
28;0.10780570000133594;2351
29;0.11089280000123836;2351
30;0.11497680000138644;2351
31;0.11897270000008575;2352
32;0.1214110000000801;2352
33;0.12476210000022547;2351
34;0.12781320000067353;2351
35;0.13178830000106245;2351
36;0.13587879999977304;2352
37;0.1394043000000238;2352
38;0.14280540000072506;2351
39;0.14530290000038804;2352
40;0.14877700000033656;2352
41;0.15280750000056287;2352
42;0.15528360000098473;2352
43;0.15879820000009204;2352
44;0.16275140000107058;2352
45;0.16683740000007674;2352
46;0.16979859999992186;2352
47;0.1724365999998554;2351
48;0.17580520000046818;2352
49;0.17980210000132502;2352
50;0.18278900000041176;2351
51;0.1857097000010981;2351
52;0.18828120000034687;2351
53;0.1906724000000395;2351
54;0.1934835000010935;2351
55;0.19658530000015162;2351
56;0.19944910000049276;2352
57;0.20244430000093416;2352
58;0.20538769999984652;2352
59;0.20831800000087242;2352
60;0.21145150000120339;2352
61;0.21444979999978386;2352
62;0.21753499999977066;2352
63;0.22038310000061756;2352
64;0.22360090000074706;2352
65;0.22637899999972433;2352
66;0.2292790999999852;2352
67;0.23244870000053197;2352
68;0.23583740000140097;2352
69;0.24077020000004268;2352
70;0.24474519999967015;2352
71;0.2487559000001056;2352
72;0.2528075999998691;2353
73;0.25542830000085814;2353
74;0.25871510000069975;2353
75;0.2616838000012649;2353
76;0.26447689999986324;2353
77;0.26746770000136166;2352
78;0.2705513000000792;2352
79;0.2734226000011404;2352
80;0.2764268999999331;2352
81;0.27941680000003544;2352
82;0.2824849999997241;2352
83;0.28527650000069116;2352
84;0.28825460000007297;2352
85;0.29145380000045407;2352
86;0.29446030000144674;2352
87;0.2974694000004092;2352
88;0.3003344000007928;2352
89;0.3034551000000647;2352
90;0.30646560000059253;2352
91;0.30945799999972223;2352
92;0.31246199999986857;2352
93;0.3154599000008602;2352
94;0.3184631000003719;2352
95;0.3211977000009938;2353
96;0.3244073000005301;2352
97;0.3274204000008467;2352
98;0.33038520000081917;2352
99;0.3334742000006372;2352
100;0.33645500000056927;2352
101;0.3394404000009672;2352
102;0.34245740000005753;2353
103;0.34545860000071116;2353
104;0.3484585000005609;2353
105;0.3514496000007057;2353
106;0.35424000000057276;2352
107;0.3574484000000666;2352
108;0.36041889999978594;2352
109;0.3632268000001204;2352
110;0.3664429000000382;2352
111;0.3694461000013689;2352
112;0.37231790000078036;2352
113;0.37544700000034936;2352
114;0.3782706000001781;2352
115;0.38124100000095495;2352
116;0.3832335000006424;2352
117;0.3852316000011342;2352
118;0.38722770000094897;2352
119;0.3894149000007019;2352
120;0.39225930000066;2352
121;0.39542009999968286;2352
122;0.3984347000005073;2352
123;0.401516800000536;2352
124;0.4041912000011507;2352
125;0.4074547000000166;2352
126;0.41065359999993234;2352
127;0.4148573000002216;2352
128;0.4188333000001876;2352
129;0.42250419999982114;2352
130;0.42593010000018694;2352
131;0.42884330000015325;2352
132;0.4328815000008035;2352
133;0.4365428000000975;2352
134;0.43974030000026687;2352
135;0.4434934000000794;2352
136;0.4467076000000816;2352
137;0.4507136000011087;2351
138;0.4538609000010183;2352
139;0.4567901000009442;2352
140;0.46085690000109025;2352
141;0.464749100001427;2352
142;0.46884660000068834;2352
143;0.47229970000080357;2352
144;0.475806399999783;2352
145;0.47866010000143433;2352
146;0.48126440000123694;2352
147;0.4844275000014022;2352
148;0.487174200001391;2352
149;0.48926180000125896;2352
150;0.4912911000010354;2351
151;0.4948323000007804;2351
152;0.4987137000007351;2352
153;0.5017989000007219;2352
154;0.5042396999997436;2352
155;0.5065911000001506;2352
156;0.5103011000010156;2352
157;0.5122270000010758;2352
158;0.5141228000011324;2352
159;0.5161750000006577;2352
160;0.5181437999999616;2353
161;0.5202700000008917;2353
162;0.5232242000001861;2352
163;0.5253246000011131;2352
164;0.5285691000008228;2353
165;0.5313739000011992;2352
166;0.5343995000002906;2352
167;0.5372956999999587;2352
168;0.5404315000014321;2352
169;0.543304500000886;2353
170;0.5464729000013904;2353
171;0.5494225000002189;2353
172;0.5522732000008546;2353
173;0.5554984000009426;2353
174;0.558584600001268;2353
175;0.5613971000002493;2353
176;0.5643196000000898;2353
177;0.5673540000007051;2354
178;0.5701327000006131;2353
179;0.5734683000009682;2353
180;0.576274300001387;2354
181;0.5784152000014728;2354
182;0.5813756000006833;2354
183;0.5843001000012009;2354
184;0.5862455000005866;2354
185;0.5894014000004972;2354
186;0.5924270000014076;2354
187;0.5953340000014578;2354
188;0.5971471000011661;2355
189;0.5993283000007068;2355
190;0.6013923000009527;2354
191;0.6043132000013429;2354
192;0.6073219000008976;2354
193;0.6093121000012616;2354
194;0.6111410000012256;2354
195;0.6133537000005163;2354
196;0.6163585000012972;2354
197;0.6195674999999028;2354
198;0.6226617000011174;2354
199;0.6252500000009604;2354
200;0.6283805000002758;2354
201;0.6312195000009524;2354
202;0.6335087000006752;2354
203;0.6363450000008015;2353
204;0.639249200001359;2354
205;0.642338200001177;2354
206;0.6450440999997227;2354
207;0.6471810000002733;2354
208;0.6492049000007682;2354
209;0.651100500001121;2353
210;0.6532500000012078;2353
211;0.6553171000014117;2354
212;0.6581454000006488;2354
213;0.660297399999763;2354
214;0.6622831000004226;2354
215;0.6643022000007477;2354
216;0.6661982000005082;2355
217;0.6682219000012992;2355
218;0.6702287000007345;2354
219;0.6722070000014355;2354
220;0.6743716000000859;2354
221;0.6772629000006418;2354
222;0.6802150000003166;2355
223;0.6824403000009625;2355
224;0.6853721000006772;2355
225;0.6871645000010176;2355
226;0.6892981000000873;2355
227;0.6921441000013147;2355
228;0.6942842999997083;2354
229;0.6975062000001344;2355
230;0.7003297000010207;2355
231;0.7023698000011791;2356
232;0.7042157000014413;2356
233;0.7071775000003981;2356
234;0.7093753000008292;2356
235;0.7123344000010547;2356
236;0.7154507000013837;2355
237;0.7184150000011869;2355
238;0.7213324000003922;2355
239;0.7241964000004373;2355
240;0.727217900001051;2355
241;0.730380500001047;2356
242;0.7333918000003905;2356
243;0.7363955000000715;2356
244;0.7393506000007619;2356
245;0.7425151000006736;2356
246;0.7453860000005079;2355
247;0.7482302000007621;2356
248;0.7513871999999537;2357
249;0.7542577000003803;2356
250;0.7562962000010884;2356
251;0.7583518999999797;2357
252;0.7611506000012014;2356
253;0.763311500000782;2356
254;0.765318900001148;2357
255;0.7671207000003051;2357
256;0.7692468000004737;2357
257;0.7711479999998119;2357
258;0.7733125000013388;2357
259;0.7751497000008385;2357
260;0.7774313000008988;2357
261;0.7803156999998464;2357
262;0.783359200000632;2357
263;0.7864305000002787;2357
264;0.7895454999998037;2358
265;0.7922274000011384;2358
266;0.7945118000006914;2358
267;0.7973559000001842;2358
268;0.800344799999948;2358
269;0.8035986000013509;2358
270;0.8063637000013841;2358
271;0.8091890000014246;2358
272;0.8123641000001953;2359
273;0.8152177000010852;2359
274;0.817365200000495;2359
275;0.8202935999997862;2359
276;0.8232201999999234;2359
277;0.8263786000006803;2359
278;0.8294870000008814;2360
279;0.832377800001268;2360
280;0.8355907000004663;2361
281;0.8384445000010601;2361
282;0.8413891000000149;2361
283;0.8445049000001745;2361
284;0.8473821000006865;2361
285;0.8502005999998801;2361
286;0.8521254000006593;2361
287;0.8541889000007359;2361
288;0.8573741000000155;2361
289;0.8603675000013027;2362
290;0.8630775000001449;2362
291;0.8651554999996733;2362
292;0.8673749999998108;2362
293;0.8702658000001975;2362
294;0.8722959000006085;2362
295;0.8743727000000945;2362
296;0.8771195999997872;2363
297;0.8792253999999957;2363
298;0.8811564000006911;2363
299;0.8832015999996656;2363
300;0.885463600001458;2363
301;0.8883694000014657;2363
302;0.8913695000010193;2364
303;0.8943893000014214;2364
304;0.8970905000005587;2364
305;0.8991550000009738;2363
306;0.9014783000002353;2364
307;0.9041498000005959;2364
308;0.9063100000003033;2364
309;0.9093296999999438;2364
310;0.9113305000009859;2365
311;0.9133958000002167;2365
312;0.9163613000000623;2365
313;0.9182350000010047;2366
314;0.9214963000013086;2366
315;0.924208100001124;2366
316;0.926193900000726;2367
317;0.9284118000014132;2367
318;0.9314941000011459;2367
319;0.9344792000010784;2367
320;0.9373580000010406;2367
321;0.9392739000013535;2367
322;0.9423729999998613;2368
323;0.9453799000002618;2368
324;0.9483811999998579;2369
325;0.9511742000013328;2369
326;0.9534633000002941;2369
327;0.9563874000014039;2369
328;0.9592394999999669;2370
329;0.9612148000014713;2370
330;0.9633568999997806;2370
331;0.9661683000012999;2370
332;0.9683457999999519;2370
333;0.9701235000011366;2371
334;0.972181900000578;2371
335;0.9744365000005928;2372
336;0.9774015000002692;2372
337;0.9806263999998919;2372
338;0.9834356999999727;2372
339;0.9862601000004361;2372
340;0.9884333000009065;2373
341;0.9914063000014721;2373
342;0.9945554000005359;2373
343;0.9973989000009169;2374
344;1.0004726000006485;2374
345;1.0033615000011196;2374
346;1.0060877000014443;2375
347;1.009165800000119;2375
348;1.0113146000003326;2376
349;1.014411400001336;2376
350;1.0173303999999916;2377
351;1.0192007000005106;2377
352;1.0212627000000793;2377
353;1.0243879000008747;2378
354;1.0271533000013733;2378
355;1.029214400001365;2379
356;1.0323826000003464;2379
357;1.0342159000010724;2380
358;1.0362368000005517;2380
359;1.0383797000013146;2380
360;1.041287400001238;2381
361;1.0433837000000494;2381
362;1.0466426000002684;2381
363;1.0494283999996696;2382
364;1.0524435000006633;2382
365;1.0540928999998869;2383
366;1.0564862999999605;2383
367;1.0593951000009838;2383
368;1.0622517000010703;2384
369;1.0643577999999252;2384
370;1.067217100000562;2384
371;1.0692294000000402;2385
372;1.0711981000004016;2385
373;1.0733694000009564;2385
374;1.076338200000464;2385
375;1.0784132000007958;2386
376;1.081195700000535;2386
377;1.0834365999999136;2387
378;1.0863860999997996;2387
379;1.0891752000006818;2388
380;1.0914573000009113;2388
381;1.0943409000010433;2389
382;1.096468100000493;2389
383;1.098496200000227;2389
384;1.1011800000014773;2389
385;1.103338500000973;2390
386;1.1053724000012153;2390
387;1.1082323999999062;2390
388;1.1111978999997518;2391
389;1.113477500000954;2392
390;1.1161561999997502;2392
391;1.1201037999999244;2393
392;1.1222837000004802;2393
393;1.1243979000009858;2393
394;1.127330900000743;2393
395;1.1304541999998037;2394
396;1.1334060000008321;2395
397;1.1364116000004287;2395
398;1.1394183000011253;2396
399;1.1422419999998965;2397
400;1.1441954000001715;2397
401;1.1463657000003877;2397
402;1.1491929000003438;2398
403;1.1525450999997702;2398
404;1.155452700000751;2399
405;1.1585107000009884;2399
406;1.161413800000446;2400
407;1.1645739000014146;2400
408;1.1674277000001894;2401
409;1.170158300001276;2401
410;1.1723729000004823;2401
411;1.175376099999994;2402
412;1.1781836000009207;2403
413;1.180376400001478;2403
414;1.1834904000006645;2404
415;1.1863793000011356;2404
416;1.1885951000003843;2404
417;1.1915035000001808;2404
418;1.1942403000011836;2405
419;1.197515800000474;2405
420;1.2005249000012554;2407
421;1.2035745000011957;2407
422;1.2064158000011957;2408
423;1.2095031999997445;2408
424;1.212559900000997;2409
425;1.2155546000012691;2410
426;1.2185609999996814;2411
427;1.221558900000673;2411
428;1.224554000000353;2412
429;1.2275948000005883;2412
430;1.2305633000014495;2413
431;1.2335567000009178;2414
432;1.2365656000001763;2414
433;1.2395524000003206;2415
434;1.242559500000425;2415
435;1.2455620000000636;2416
436;1.2485570999997435;2416
437;1.251562000001286;2417
438;1.2544505000005302;2417
439;1.2575836000014533;2418
440;1.2605562999997346;2419
441;1.2635566000008112;2420
442;1.2665515000007872;2420
443;1.2695617999997921;2421
444;1.2724381999996695;2421
445;1.2755957999997918;2422
446;1.2785545000006096;2423
447;1.2814479999997275;2424
448;1.2844249000008858;2424
449;1.2872278000013466;2425
450;1.2892621999999392;2425
451;1.2912335000000894;2425
452;1.2942473000002792;2426
453;1.2964276000002428;2427
454;1.2992613000005804;2427
455;1.3024916000013036;2428
456;1.3055237000007764;2428
457;1.3085435000011785;2429
458;1.311472600000343;2430
459;1.3146085999997013;2431
460;1.3174865000000864;2432
461;1.3202825000007579;2432
462;1.3224742000002152;2433
463;1.325466600001164;2434
464;1.3286256000010326;2434
465;1.3314938000003167;2435
466;1.334622300000774;2435
467;1.3373085000002902;2436
468;1.3406193999999232;2437
469;1.3434942000003502;2437
470;1.346411000000444;2438
471;1.3491198000010627;2438
472;1.3512979000006453;2439
473;1.3531441000013729;2439
474;1.355252000001201;2439
475;1.3573593000000983;2440
476;1.3602965000009135;2441
477;1.3637668999999732;2442
478;1.3672858999998425;2443
479;1.3704491999997117;2443
480;1.3738150999997742;2444
481;1.377826100000675;2445
482;1.381855200001155;2446
483;1.385846400000446;2447
484;1.388267000000269;2448
485;1.391388600000937;2448
486;1.394571700000597;2448
487;1.397526700000526;2449
488;1.4005890999997064;2450
489;1.4034717000013188;2451
490;1.4064548000005743;2451
491;1.4094628000002558;2452
492;1.4124871000003623;2452
493;1.4154365000013058;2453
494;1.4184774000004836;2454
495;1.4215968000007706;2454
496;1.4245851000014227;2455
497;1.427597900001274;2455
498;1.4301692000008188;2456
499;1.4321064000014303;2456
500;1.4341315000001487;2456
501;1.436105900000257;2456
502;1.43819860000076;2457
503;1.4401875000003201;2457
504;1.4421891000001779;2458
505;1.4442386999999144;2459
506;1.4472427000000607;2460
507;1.44925830000102;2460
508;1.4512147000004916;2460
509;1.4534741000006761;2461
510;1.456525400000828;2461
511;1.4595062999997026;2462
512;1.4624979000000167;2462
513;1.4655695000001288;2463
514;1.4685688000008668;2464
515;1.4715495000000374;2464
516;1.4745467000011558;2465
517;1.4771510000009584;2466
518;1.4792671000013797;2467
519;1.4815450000005512;2468
520;1.4845357000012882;2468
521;1.4872797000007267;2469
522;1.4905337000000145;2470
523;1.4935220000006666;2470
524;1.4965456000008999;2471
525;1.4995439000012993;2472
526;1.5025934000004781;2473
527;1.5055944000014279;2473
528;1.5081583999999566;2474
529;1.511578499999814;2475
530;1.5145815000014409;2475
531;1.5175921000009112;2476
532;1.5202616000005946;2476
533;1.523568399999931;2476
534;1.5265961000004609;2477
535;1.529590800000733;2478
536;1.5325838999997359;2478
537;1.5355811000008543;2479
538;1.5385860000005778;2480
539;1.541589100001147;2480
540;1.5445924000014202;2481
541;1.5475814000001265;2481
542;1.5505854000002728;2481
543;1.5535176000012143;2482
544;1.5573248000000603;2483
545;1.560307700001431;2483
546;1.5622863999997207;2484
547;1.5652489000003698;2484
548;1.567268900000272;2485
549;1.5692803000001732;2485
550;1.5722633000004862;2486
551;1.5742754000002606;2486
552;1.576270100000329;2487
553;1.5781575000000885;2487
554;1.5801513000005798;2487
555;1.5821094000002631;2488
556;1.5840781000006245;2488
557;1.5861015999998926;2488
558;1.5882958000001963;2489
559;1.5901589000004606;2489
560;1.5922411999999895;2490
561;1.5942176999997173;2490
562;1.5960876999997708;2491
563;1.5981081000008999;2491
564;1.6001372999999148;2492
565;1.6021197000009124;2492
566;1.604329100000541;2493
567;1.6060494000012113;2493
568;1.6081582000006165;2493
569;1.610033900000417;2493
570;1.6120409000013751;2493
571;1.6140286999998352;2494
572;1.6160271000007924;2494
573;1.6181169999999838;2495
574;1.6201957000012044;2495
575;1.623189200001434;2496
576;1.6251176000005216;2496
577;1.627167599999666;2496
578;1.6301364000009926;2497
579;1.632238199999847;2497
580;1.6352523000005021;2497
581;1.6385229000006802;2498
582;1.641182100000151;2498
583;1.6441818000002968;2498
584;1.64707670000098;2499
585;1.6490678000009211;2499
586;1.6510189000000537;2499
587;1.6532175000011193;2500
588;1.655119500001092;2500
589;1.6573973000013211;2500
590;1.6601582000002963;2501
591;1.6620328000008158;2501
592;1.6640717999998742;2501
593;1.6661375000003318;2502
594;1.6680706000006467;2502
595;1.670120800001314;2502
596;1.6723125000007713;2502
597;1.6751565000013215;2503
598;1.6772180999996635;2503
599;1.6791592000008677;2504
600;1.6811463000012736;2504
601;1.683092299999771;2504
602;1.6850561000010202;2505
603;1.6871306000011828;2505
604;1.6890997999998945;2505
605;1.6911061000009795;2506
606;1.6931221000013466;2506
607;1.695134000001417;2506
608;1.697243399999934;2506
609;1.6991226000009192;2506
610;1.7011429000012868;2506
611;1.7032254000005196;2507
612;1.7051210999998148;2507
613;1.7073665000007168;2508
614;1.7102364000002126;2508
615;1.7121180000012828;2509
616;1.7141805999999633;2509
617;1.7161759999999049;2509
618;1.7182154000001901;2510
619;1.7202366000001348;2509
620;1.7222086000001582;2510
621;1.7242182000009052;2510
622;1.726216300001397;2511
623;1.7282049000004918;2511
624;1.7302319000009447;2511
625;1.7322425000002113;2512
626;1.7342481000014232;2512
627;1.7372197000004235;2512
628;1.7393173000000388;2513
629;1.7411559000011039;2513
630;1.743105999999898;2513
631;1.7451474999998027;2513
632;1.7472302000005584;2513
633;1.750235600000451;2514
634;1.7522179000006872;2514
635;1.7542384000007587;2514
636;1.7560936999998376;2514
637;1.7581129999998666;2514
638;1.7600459000004776;2514
639;1.7620876000000862;2515
640;1.76411410000037;2515
641;1.7661126000002696;2515
642;1.7682013000012375;2516
643;1.7704537000008713;2516
644;1.7732140000007348;2517
645;1.7751715000013064;2516
646;1.7771158000014111;2516
647;1.7791481000003841;2517
648;1.7810771000004024;2517
649;1.7830860000012763;2517
650;1.7850564000000304;2517
651;1.7872099000014714;2518
652;1.7901794999997946;2518
653;1.7922451000013098;2518
654;1.7942450999998982;2518
655;1.7962435999997979;2518
656;1.7982370000008814;2518
657;1.801121600001352;2518
658;1.8033384000009391;2519
659;1.8051363000013225;2519
660;1.8082742000005965;2519
661;1.8101399000006495;2519
662;1.8122806000010314;2519
663;1.8142557000010129;2520
664;1.8162105000010342;2519
665;1.8182343000007677;2520
666;1.8202134000002843;2520
667;1.822118699999919;2520
668;1.8240930000010849;2521
669;1.826127300000735;2521
670;1.8281285000011849;2521
671;1.8301014000007854;2521
672;1.8321880000003148;2522
673;1.834178700000848;2522
674;1.836194700001215;2521
675;1.8382035000013275;2521
676;1.8401788000010129;2522
677;1.842179400000532;2522
678;1.8443607000008342;2522
679;1.8460830000003625;2522
680;1.8480763000006846;2522
681;1.8501465000008466;2523
682;1.8521397000004072;2523
683;1.8540883000005124;2523
684;1.8560809000009613;2523
685;1.8580570000012813;2523
686;1.860038100001475;2523
687;1.8620286000004853;2523
688;1.8640353999999206;2524
689;1.8661140000003797;2524
690;1.8680882000007841;2524
691;1.8701407999997173;2524
692;1.8723292000013316;2525
693;1.8740813000003982;2525
694;1.8762182999998913;2525
695;1.8784527000007074;2525
696;1.881470199999967;2525
697;1.8844421000012517;2525
698;1.8874047000008431;2525
699;1.8904491000012058;2525
700;1.8933936000012181;2526
701;1.896414000000732;2526
702;1.8993559000009554;2526
703;1.902282799999739;2526
704;1.9041919999999664;2526
705;1.9074591000007786;2526
706;1.9103861000003235;2526
707;1.913299100000586;2526
708;1.9162824000013643;2526
709;1.9193513999998686;2526
710;1.9215675000014016;2527
711;1.9244231000011496;2526
712;1.9273117000011553;2526
713;1.9304193999996642;2527
714;1.933269900000596;2527
715;1.9363110000012966;2527
716;1.9399771999997029;2527
