;time;amplitude
0;0.0025103000007220544;2571
1;0.005526799999643117;2570
2;0.008510900001056143;2569
3;0.011806500000602682;2567
4;0.014709500001117704;2566
5;0.01757720000023255;2565
6;0.02048130000002857;2563
7;0.023484800000005635;2562
8;0.02660660000037751;2561
9;0.029512200000681332;2559
10;0.03262480000012147;2557
11;0.03559599999971397;2555
12;0.03855169999951613;2554
13;0.04162490000089747;2553
14;0.04452250000031199;2551
15;0.047636299999794574;2549
16;0.050527499999589054;2548
17;0.053464200000234996;2546
18;0.056488500000341446;2545
19;0.05858240000088699;2543
20;0.06155949999993027;2541
21;0.06439490000047954;2539
22;0.06750560000000405;2538
23;0.07036630000038713;2536
24;0.07352549999995972;2534
25;0.07669279999936407;2532
26;0.07949290000033216;2530
27;0.08251460000064981;2529
28;0.08597759999975096;2527
29;0.08881020000080753;2525
30;0.0914850999997725;2524
31;0.09441689999948721;2522
32;0.09748990000116464;2520
33;0.09961250000014843;2519
34;0.10237290000077337;2518
35;0.10441660000105912;2516
36;0.10633650000090711;2515
37;0.10849310000048717;2514
38;0.1114426000003732;2513
39;0.11453579999943031;2511
40;0.11751379999986966;2510
41;0.12040220000017143;2508
42;0.12253220000093279;2506
43;0.12542589999975462;2505
44;0.1283822000004875;2504
45;0.13150970000060624;2502
46;0.134625300001062;2500
47;0.1374307999994926;2498
48;0.1392150000010588;2496
49;0.14125899999999092;2495
50;0.14341199999944365;2494
51;0.14678850000018429;2492
52;0.15099850000115111;2490
53;0.15477800000007846;2487
54;0.15911349999987578;2485
55;0.16272370000115188;2482
56;0.16559480000069016;2480
57;0.16907949999949778;2478
58;0.17260580000038317;2476
59;0.1758432000005996;2474
60;0.17878320000090753;2471
61;0.18162560000018857;2469
62;0.18457280000075116;2466
63;0.18739079999977548;2464
64;0.1897361000010278;2463
65;0.19273310000062338;2461
66;0.19559300000037183;2459
67;0.19857709999996587;2457
68;0.20135789999949338;2455
69;0.20442000000002736;2452
70;0.20651530000031926;2451
71;0.20959620000030554;2450
72;0.21252950000052806;2447
73;0.21558010000080685;2446
74;0.2185685000004014;2444
75;0.22134720000030939;2442
76;0.2232624999996915;2440
77;0.22543670000050042;2439
78;0.22829799999999523;2438
79;0.23229320000064035;2436
80;0.23701570000048378;2433
81;0.2407863999997062;2430
82;0.24390409999978147;2428
83;0.24772549999943294;2426
84;0.250449999999546;2424
85;0.2539832000002207;2423
86;0.25650619999942137;2421
87;0.2597089999999298;2420
88;0.2624465999997483;2418
89;0.26558789999944565;2417
90;0.26845590000084485;2414
91;0.27138170000034734;2412
92;0.2749753000007331;2411
93;0.2778686000001471;2409
94;0.280810800000836;2407
95;0.28378850000081;2405
96;0.28649679999944055;2403
97;0.2893880999999965;2401
98;0.2925761999995302;2399
99;0.2953505999994377;2397
100;0.2975382000004174;2396
101;0.3005597999999736;2394
102;0.3034287000009499;2392
103;0.30652550000013434;2390
104;0.30939109999962966;2388
105;0.3114619000007224;2386
106;0.3145258000004105;2385
107;0.31743249999999534;2383
108;0.3203118000001268;2381
109;0.3221979999998439;2379
110;0.3244622000001982;2377
111;0.32749189999958617;2376
112;0.3293069999999716;2374
113;0.3313682999996672;2372
114;0.33334670000112965;2371
115;0.33533490000081656;2370
116;0.3383169999997335;2368
117;0.3414109000004828;2366
118;0.34319909999976517;2365
119;0.3453878000000259;2363
120;0.3474316000010731;2362
121;0.3505776000001788;2361
122;0.35338790000059817;2359
123;0.3553986000006262;2357
124;0.35868180000034044;2356
125;0.3615860000008979;2355
126;0.3644328000009409;2353
127;0.3674854000000778;2351
128;0.3703452000008838;2349
129;0.37337789999946835;2347
130;0.3753546000007191;2346
131;0.3773961999995663;2344
132;0.3793301999994583;2344
133;0.38137880000067526;2343
134;0.383392300000196;2341
135;0.3853541000007681;2340
136;0.3873146000005363;2339
137;0.38935330000094837;2338
138;0.39242170000034093;2336
139;0.39433199999984936;2335
140;0.3963261999997485;2334
141;0.39826320000065607;2333
142;0.40042340000036347;2332
143;0.4023446999999578;2330
144;0.4042578999997204;2329
145;0.4064340999993874;2329
146;0.4083958999999595;2328
147;0.41031440000006114;2326
148;0.4122342999999091;2325
149;0.41424039999947126;2324
150;0.4162684000002628;2323
151;0.41931079999994836;2322
152;0.4214143999997759;2321
153;0.4247369000004255;2320
154;0.42754489999970247;2318
155;0.4305351000002702;2317
156;0.4323268000007374;2315
157;0.4354917000000569;2314
158;0.4384650000010879;2312
159;0.44039100000009057;2311
160;0.4435886000010214;2309
161;0.44744209999953455;2308
162;0.45052209999994375;2306
163;0.45335030000023835;2305
164;0.45558859999982815;2303
165;0.45870819999981904;2302
166;0.46150570000099833;2301
167;0.4645209000009345;2300
168;0.4676789999994071;2298
169;0.47031240000069374;2297
170;0.47274010000001;2296
171;0.4764229000011255;2295
172;0.4792751999993925;2293
173;0.48140849999981583;2292
174;0.4834240000000136;2291
175;0.48535070000070846;2290
176;0.48730969999996887;2290
177;0.4893346000008023;2289
178;0.49247900000045775;2287
179;0.4943736999994144;2286
180;0.4976057000003493;2285
181;0.5003397000000405;2284
182;0.5032769999997981;2282
183;0.5054297000006045;2281
184;0.5072722999993857;2280
185;0.5105710000007093;2279
186;0.5133662999996886;2278
187;0.515505999999732;2277
188;0.5185354000004736;2276
189;0.5215177000009135;2275
190;0.5245051000001695;2274
191;0.5273426000003383;2273
192;0.5303464999997232;2272
193;0.533521400000609;2271
194;0.5363496000009036;2270
195;0.5395031999996718;2269
196;0.5426482000002579;2268
197;0.5455206999995426;2267
198;0.5483994999995048;2266
199;0.5515417999995407;2266
200;0.5544466999999713;2265
201;0.556389900000795;2264
202;0.5583740000001853;2263
203;0.5603356000010535;2263
204;0.5623577000005753;2262
205;0.564211000000796;2262
206;0.566344000000754;2262
207;0.5682618999999249;2261
208;0.57155210000019;2260
209;0.5747897000001103;2260
210;0.5775971000002755;2259
211;0.5805486000008386;2259
212;0.5833803000004991;2258
213;0.5863671999995859;2257
214;0.5892662999995082;2257
215;0.5912850000004255;2256
216;0.5932348999995156;2256
217;0.5952820000002248;2256
218;0.5973943999997573;2255
219;0.5993920000000799;2255
220;0.6013815999995131;2255
221;0.6032355999996071;2254
222;0.6052101000004768;2254
223;0.607352400000309;2253
224;0.6104250000007596;2253
225;0.6135371000000305;2253
226;0.6164733999994496;2252
227;0.6195138000002771;2252
228;0.6224779000003764;2251
229;0.6259377999995195;2251
230;0.6299782999994932;2251
231;0.6329193000001396;2250
232;0.6366329000011319;2250
233;0.6395570000004227;2249
234;0.642781800001103;2249
235;0.6456877000000532;2249
236;0.648761899999954;2249
237;0.6514258000006521;2249
238;0.65436580000096;2249
239;0.656730200000311;2249
240;0.6595999000001029;2249
241;0.6625302000011288;2248
242;0.6653888000000734;2249
243;0.667339699999502;2249
244;0.669432599999709;2249
245;0.671303799999805;2248
246;0.6732384000006277;2248
247;0.6753802000002906;2249
248;0.6772935999997571;2249
249;0.6793536999994103;2249
250;0.6823705999995582;2249
251;0.6855673000009119;2249
252;0.6885115000004589;2249
253;0.6914495000000898;2249
254;0.694781399999556;2249
255;0.6978233000008913;2249
256;0.7005456999995658;2249
257;0.7033750000009604;2249
258;0.7053546999995888;2249
259;0.7074735000005603;2249
260;0.7103234000005614;2249
261;0.7123831000008067;2250
262;0.7143013999993855;2250
263;0.7163576000002649;2250
264;0.7183932999996614;2250
265;0.7203430000008666;2250
266;0.7223076999998739;2251
267;0.7244415999994089;2251
268;0.7264797000007093;2251
269;0.7283268000010139;2251
270;0.7320758000005299;2251
271;0.7358316000008926;2251
272;0.7397338000009768;2251
273;0.7425903000003018;2251
274;0.7466306000005716;2252
275;0.7500603999997111;2252
276;0.75359539999954;2253
277;0.7565052999998443;2253
278;0.7594255000003614;2254
279;0.7616974000011396;2254
280;0.7645448000002943;2255
281;0.767712599999868;2255
282;0.7704744000002393;2256
283;0.7734366000004229;2256
284;0.775636399999712;2257
285;0.7785948000000644;2257
286;0.7817252999993798;2258
287;0.7845491000007314;2258
288;0.7874095999995916;2259
289;0.7905590999998822;2259
290;0.7933893000008538;2260
291;0.7954090000002907;2261
292;0.7975667999999132;2262
293;0.8004383000006783;2262
294;0.8024340000010852;2263
295;0.8054774000011093;2264
296;0.808306500000981;2265
297;0.810292300000583;2266
298;0.8123157999998512;2267
299;0.8155019999994693;2268
300;0.8174433000003773;2270
301;0.8205837000004976;2270
302;0.8237946999997803;2271
303;0.8267995000005612;2273
304;0.8299533000008523;2274
305;0.8328141000001779;2275
306;0.8354149000006146;2276
307;0.8374065999996674;2277
308;0.8393885999994382;2278
309;0.8422867999997834;2279
310;0.8442766000007396;2280
311;0.8462754000011046;2281
312;0.8482927000004565;2281
313;0.850449400000798;2282
314;0.8523638000006031;2282
315;0.8543021000004956;2283
316;0.8568907999997464;2284
317;0.859868200001074;2286
318;0.8633678999995027;2287
319;0.8665751999997156;2288
320;0.8692795999995724;2290
321;0.8715331000003061;2291
322;0.874532800000452;2292
323;0.8766575999998167;2293
324;0.8795255000004545;2294
325;0.882360499999777;2295
326;0.8845806999997876;2297
327;0.8874162000010983;2298
328;0.8893809000001056;2299
329;0.8915159000007407;2300
330;0.8945474000011018;2301
331;0.8963421000007656;2302
332;0.8996126000001823;2303
333;0.9023087999994459;2304
334;0.904413399999612;2305
335;0.9075463999997737;2306
336;0.9103783999998996;2308
337;0.9134334999998828;2309
338;0.9154202000008809;2311
339;0.9172598000004655;2311
340;0.9192825999998604;2312
341;0.921288800000184;2314
342;0.9246382000001176;2315
343;0.9273604999998497;2316
344;0.9303737999998702;2317
345;0.9336726000001363;2318
346;0.9367106999998214;2320
347;0.9394872000011674;2321
348;0.9427128000006633;2322
349;0.9459550999999919;2324
350;0.9487836999996944;2325
351;0.9514853000000585;2327
352;0.9545266000004631;2329
353;0.9573469000006298;2329
354;0.960544800000207;2331
355;0.9635677000005671;2333
356;0.966535900000963;2334
357;0.9695372999995016;2336
358;0.9713086000010662;2338
359;0.9735820000005333;2339
360;0.9765845000001718;2341
361;0.9796003999999812;2342
362;0.9825629000006302;2343
363;0.9854288999995333;2345
364;0.9874116000009963;2346
365;0.9904084999998304;2348
366;0.9937275000011141;2349
367;0.9965472000003501;2351
368;0.9994093000004796;2353
369;1.0024852000005922;2356
370;1.0053413999994518;2357
371;1.008364999999685;2359
372;1.0103287000001728;2361
373;1.0134663999997429;2362
374;1.0154579999998532;2364
375;1.0183317999999417;2366
376;1.021414900000309;2368
377;1.0246351000005234;2369
378;1.0275187999995978;2371
379;1.0304706000006263;2373
380;1.0333989000009751;2375
381;1.0354069000004529;2376
382;1.0373013000007631;2377
383;1.039266800000405;2378
384;1.0414294000001973;2379
385;1.0433969000005163;2381
386;1.0453400000005786;2381
387;1.0476546000008966;2382
388;1.0504536999997072;2384
389;1.0533402000000933;2386
390;1.055326600000626;2388
391;1.0572757000009005;2389
392;1.0592782000003353;2390
393;1.0611869000003935;2391
394;1.0632053000008455;2393
395;1.065192100000786;2394
396;1.0672465999996348;2395
397;1.0692474999996193;2397
398;1.0712756000011723;2398
399;1.0744262999996863;2399
400;1.0764287000001787;2401
401;1.078768499999569;2402
402;1.0816570999995747;2404
403;1.0845174999994924;2406
404;1.0873755000011442;2408
405;1.0905430000002525;2410
406;1.093350900000587;2412
407;1.0956117000005179;2414
408;1.0985816000011255;2415
409;1.1015057999993587;2417
410;1.104461099999753;2419
411;1.1063804999994318;2420
412;1.1084958999999799;2422
413;1.1115117999997892;2423
414;1.1144043000003876;2426
415;1.1175376000010147;2428
416;1.120569599999726;2430
417;1.122687600000063;2432
418;1.1255110000001878;2433
419;1.1284128000006604;2435
420;1.1315543000000616;2437
421;1.13443929999994;2439
422;1.137399400000504;2441
423;1.139310700000351;2443
424;1.1429215999996813;2445
425;1.1470030000000406;2447
426;1.151049600000988;2450
427;1.1550700000007055;2453
428;1.1589751000010438;2455
429;1.1626689999993687;2458
430;1.165697899999941;2459
431;1.1694762999995874;2461
432;1.1725525000001653;2463
433;1.1754079000002093;2465
434;1.1787502000006498;2467
435;1.1815970000006928;2470
436;1.1844624000004842;2471
437;1.186417299999448;2472
438;1.1889786000010645;2473
439;1.1916020999997272;2475
440;1.1945522999994864;2477
441;1.197899900000266;2479
442;1.2006192999997438;2482
443;1.2033817999999883;2483
444;1.2064167999997153;2485
445;1.2084235000002082;2486
446;1.210347100000945;2488
447;1.2122813999994833;2489
448;1.2144423999998253;2490
449;1.2162688999997044;2491
450;1.218265400000746;2493
451;1.2202443000005587;2494
452;1.2224519000010332;2495
453;1.2243521000000328;2496
454;1.226348300000609;2497
455;1.2283046000011382;2499
456;1.230356899999606;2500
457;1.2324762999996892;2501
458;1.2353364000009606;2503
459;1.2374017000001913;2504
460;1.2405794000005699;2506
461;1.2433736000002682;2507
462;1.2465310000006866;2509
463;1.2495331999998598;2511
464;1.2526438999993843;2513
465;1.2555088000008254;2515
466;1.2584557000009227;2517
467;1.2614647000009427;2519
468;1.2643134000009013;2521
469;1.267545799999425;2522
470;1.2703844000006939;2524
471;1.2733662000009645;2526
472;1.275514099999782;2528
473;1.2782750000005763;2529
474;1.2804107000010845;2531
475;1.2833518000006734;2533
476;1.2852977000002284;2534
477;1.287257399999362;2536
478;1.2892669000011665;2537
479;1.2913944000010815;2538
480;1.2934134999995877;2539
481;1.295407300000079;2541
482;1.2974076000009518;2542
483;1.2994335000003048;2543
484;1.3013623000006191;2544
485;1.3033957999996346;2545
486;1.3065987000009045;2546
487;1.3095534000003681;2548
488;1.3123986000009609;2549
489;1.3155767000007472;2551
490;1.3186724999995931;2552
491;1.3213673000009294;2554
492;1.3245489000000816;2556
493;1.3275867000011203;2557
494;1.3305863000005047;2559
495;1.3336412999997265;2560
496;1.3363188000002992;2561
497;1.33838520000063;2562
498;1.340374499999598;2563
499;1.3425237000010384;2564
500;1.3455754000005982;2565
501;1.3485607000002346;2566
502;1.3515112000004592;2567
503;1.3533807000003435;2568
504;1.3555132000001322;2569
505;1.3585206999996444;2570
506;1.361499200000253;2571
507;1.3645488000001933;2572
508;1.3673954999994749;2573
509;1.3692141999999876;2574
510;1.37150660000043;2575
511;1.3733308000009856;2576
512;1.3754463000004762;2576
513;1.377421700000923;2577
514;1.3794173000005685;2578
515;1.381455000000642;2579
516;1.3834869000002072;2580
517;1.3853245999998762;2580
518;1.3874052999999549;2581
519;1.3907744999996794;2582
520;1.3950545000006969;2583
521;1.3992811999996775;2585
522;1.4038753999993787;2586
523;1.4082312999998976;2588
524;1.4119840000003023;2589
525;1.4161629999998695;2591
526;1.4197849000011047;2592
527;1.422850599999947;2593
528;1.4266793000006146;2594
529;1.4306680000008782;2595
530;1.43467899999996;2596
531;1.4375536999996257;2597
532;1.4408829000003607;2598
533;1.4438499999996566;2599
534;1.4467939999994996;2600
535;1.4499063000002934;2600
536;1.4536198999994667;2601
537;1.45685770000091;2601
538;1.4609266000006755;2602
539;1.464929600000687;2603
540;1.4685752000004868;2604
541;1.471882199999527;2604
542;1.4748593000003893;2605
543;1.477854099999604;2605
544;1.4809070999999676;2606
545;1.4846500000003289;2607
546;1.487656600000264;2607
547;1.4906212000005326;2608
548;1.4936393999996653;2609
549;1.4966409999997268;2609
550;1.4995159999998577;2610
551;1.502696300000025;2610
552;1.505638500000714;2611
553;1.5086492000009457;2611
554;1.5116149000004953;2611
555;1.514623200000642;2612
556;1.51764010000079;2612
557;1.5205881000001682;2613
558;1.5236242999999376;2613
559;1.5266176999994059;2614
560;1.529622100000779;2614
561;1.5326165999995283;2614
562;1.5356111000000965;2615
563;1.5386498000007123;2615
564;1.5416480000003503;2616
565;1.5446528000011313;2616
566;1.5476459000001341;2616
567;1.5506571999994776;2616
568;1.5535502000002452;2616
569;1.5566290999995545;2616
570;1.5596607999996195;2616
571;1.562478400001055;2616
572;1.565640799999528;2616
573;1.5686528000005637;2616
574;1.5717330000006768;2616
575;1.5747518999996828;2616
576;1.5777947999995376;2616
577;1.5807385999996768;2615
578;1.5837542000008398;2615
579;1.5865462000001571;2615
580;1.5897466000005807;2614
581;1.5927513999995426;2614
582;1.5957185000006575;2613
583;1.598750499999369;2613
584;1.6017487999997684;2613
585;1.604734800001097;2613
586;1.6077397000008204;2612
587;1.6107504000010522;2612
588;1.613749199999802;2612
589;1.6167482000000746;2611
590;1.6194789000001037;2611
591;1.6227527999999438;2611
592;1.62550949999968;2611
593;1.6287448000002769;2610
594;1.631763499999579;2610
595;1.634767200001079;2610
596;1.6377645000011398;2610
597;1.640672600000471;2609
598;1.643756100000246;2608
599;1.6467477999995026;2608
600;1.6497469000005367;2607
601;1.652714300000298;2606
602;1.6557768000002397;2606
603;1.658731200001057;2606
604;1.6617495000009512;2605
605;1.6647625999994489;2605
606;1.6677409000003536;2604
607;1.670610499999384;2603
608;1.673588400000881;2603
609;1.6767627999997785;2602
610;1.679756699999416;2602
611;1.6827537000008306;2601
612;1.6857416000002559;2600
613;1.6885488000007172;2599
614;1.6917219999995723;2598
615;1.6947395999995933;2597
616;1.6977402000011352;2597
617;1.700715200000559;2596
618;1.7035593000000517;2596
619;1.7066242000000784;2595
620;1.7096096000004763;2595
621;1.7126256000010471;2593
622;1.715620000000854;2593
623;1.7186564000003273;2592
624;1.7217505000007804;2591
625;1.7247437000005448;2591
626;1.727752099999634;2590
627;1.7307512000006682;2589
628;1.7337568000002648;2588
629;1.7363767999995616;2587
630;1.7397287000003416;2586
631;1.7427566000005754;2584
632;1.74561630000062;2583
633;1.748748500000147;2582
634;1.7517509999997856;2581
635;1.7547512000001007;2579
636;1.7577486999998655;2578
637;1.7607465000000957;2577
638;1.763742099999945;2575
639;1.7667612999994162;2573
640;1.7694599999995262;2571
641;1.7727565000004688;2570
642;1.7757533000003605;2568
643;1.7787540999997873;2566
644;1.7817415000008623;2565
645;1.7844977000004292;2564
646;1.7877566000006482;2562
647;1.7907491999994818;2560
648;1.7936095999993995;2558
649;1.7967671000005794;2557
650;1.7995599999994738;2554
651;1.8024779000006674;2553
652;1.8057502000010572;2552
653;1.8087453999996796;2550
654;1.8117593999995734;2549
655;1.8147356000008585;2548
656;1.8177558999996108;2546
657;1.82075900000018;2545
658;1.8237545000010869;2543
659;1.8267611999999644;2542
660;1.829747199999474;2540
661;1.8327420000005077;2539
662;1.8357546999995975;2538
663;1.8387440999995306;2537
664;1.8417484000001423;2535
665;1.844759100000374;2534
666;1.847537600000578;2532
667;1.8507547999997769;2531
668;1.8535246000010375;2530
669;1.856524700000591;2529
670;1.8597523999997065;2527
671;1.8625869000006787;2526
672;1.8657657000003383;2525
673;1.8687439000004815;2523
674;1.8717673999999533;2522
675;1.8747483999995893;2520
676;1.877812200000335;2518
677;1.8807451000011497;2516
678;1.8837610999999015;2514
679;1.8864883999995072;2513
680;1.8897591999993892;2511
681;1.8927512000009301;2509
682;1.8955461000005016;2507
683;1.8986012999994273;2505
684;1.9016169000005902;2503
685;1.9057622000000265;2501
686;1.90874310000072;2499
687;1.9117476000010356;2497
688;1.9148117999993701;2496
689;1.9177438000006077;2494
690;1.9205698999994638;2492
691;1.9237812999999733;2490
692;1.9267374000010022;2488
693;1.929747000000134;2486
694;1.932745199999772;2485
695;1.9357569000003423;2482
696;1.9387490000008256;2481
697;1.9417630999996618;2478
698;1.9447570000011183;2477
699;1.9477569999999105;2475
700;1.9508313999995153;2473
701;1.9535441999996692;2471
702;1.9567237999999634;2469
703;1.9595451000004687;2467
704;1.9631475000005594;2466
705;1.9671220000000176;2463
706;1.971012600000904;2461
707;1.973844399999507;2458
708;1.976812400000199;2456
709;1.9811731000008876;2454
710;1.98520869999993;2451
711;1.989161999999851;2448
712;1.9931187000001955;2445
713;1.9971349999996164;2442
714;1.9999790000001667;2439
715;2.002867700000934;2437
716;2.0071380999997928;2435
