;time;amplitude
0;0.003333000000566244;2456
1;0.0062128000008669915;2457
2;0.010247600001093815;2460
3;0.013353300000744639;2462
4;0.016562600001634564;2463
5;0.020572000001266133;2465
6;0.023490100000344682;2466
7;0.027580400001170347;2468
8;0.031510200000411714;2470
9;0.035507000000507105;2471
10;0.039506100001744926;2474
11;0.043527800000447314;2475
12;0.0472966000015731;2477
13;0.05143390000012005;2478
14;0.054197200000999146;2480
15;0.05720090000068012;2481
16;0.06019980000019132;2483
17;0.06309320000036678;2484
18;0.06614540000009583;2485
19;0.06914840000172262;2486
20;0.07215040000119188;2487
21;0.07511410000006435;2488
22;0.07814730000063719;2490
23;0.08122190000176488;2491
24;0.08412090000092576;2492
25;0.08758970000053523;2493
26;0.09123670000008133;2495
27;0.09430490000158898;2496
28;0.09818860000086715;2498
29;0.10131800000090152;2499
30;0.10539580000113347;2501
31;0.10830990000067686;2502
32;0.11134410000158823;2503
33;0.11514870000064548;2504
34;0.11807530000078259;2505
35;0.12153870000111056;2507
36;0.1254028000003018;2509
37;0.12835470000027271;2510
38;0.13099680000050284;2511
39;0.13433880000047793;2512
40;0.1372843000008288;2513
41;0.14136670000152662;2515
42;0.14431650000005902;2516
43;0.14684200000010605;2517
44;0.14949540000088746;2518
45;0.15234220000093046;2519
46;0.1553330000006099;2520
47;0.1582220000000234;2521
48;0.1621173000003182;2522
49;0.16547130000071775;2523
50;0.16846000000077765;2524
51;0.1713067000000592;2525
52;0.17525280000154453;2527
53;0.17796370000178285;2528
54;0.1810341000000335;2529
55;0.18430260000059207;2530
56;0.18709210000088206;2532
57;0.19145950000165612;2533
58;0.1944734000007884;2534
59;0.1979525000006106;2535
60;0.2012653000001592;2537
61;0.20407490000070538;2537
62;0.20693060000121477;2539
63;0.21024040000156674;2540
64;0.21407060000092315;2541
65;0.21817690000170842;2543
66;0.22174030000132916;2544
67;0.22507950000181154;2545
68;0.22849940000014612;2546
69;0.23248310000053607;2547
70;0.23645200000100886;2548
71;0.2389381000011781;2549
72;0.24091760000010254;2550
73;0.24321490000147605;2550
74;0.2461778000015329;2551
75;0.2488753000016004;2551
76;0.2521825000003446;2552
77;0.2551827000006597;2553
78;0.2582315000017843;2554
79;0.26109070000165957;2554
80;0.26386420000017097;2554
81;0.26725340000120923;2555
82;0.270239200001015;2556
83;0.2732011000007333;2556
84;0.2760293000010279;2557
85;0.2789814000007027;2558
86;0.28098570000111067;2558
87;0.2829583000002458;2559
88;0.2849233000015374;2559
89;0.2869088000006741;2560
90;0.288907800000743;2560
91;0.2909220000001369;2561
92;0.2929100000001199;2561
93;0.29494770000019344;2562
94;0.2970022000008612;2562
95;0.3000021000007109;2563
96;0.3019067000004725;2564
97;0.30520980000073905;2565
98;0.30821320000177366;2566
99;0.3112501000014163;2567
100;0.3140430000003107;2568
101;0.3169298000011622;2569
102;0.3191785000017262;2570
103;0.32208900000114227;2571
104;0.32525510000050417;2571
105;0.3281788000003871;2572
106;0.33094010000058915;2572
107;0.3328328000006877;2573
108;0.33490640000127314;2573
109;0.33721260000129405;2574
110;0.34019810000063444;2575
111;0.34321040000031644;2575
112;0.3461901000009675;2576
113;0.3479384000002028;2576
114;0.35126100000161387;2576
115;0.35397240000020247;2577
116;0.3569785000017873;2577
117;0.35992110000006505;2578
118;0.3628688000007969;2578
119;0.3648687000004429;2578
120;0.36688540000068315;2579
121;0.36890020000100776;2579
122;0.3721977000004699;2579
123;0.3749862000004214;2579
124;0.378717500001585;2580
125;0.3809768000010081;2580
126;0.38447890000134066;2580
127;0.38842360000126064;2580
128;0.3924626000007265;2580
129;0.3964811000005284;2581
130;0.3994700000002922;2582
131;0.4034676000010222;2582
132;0.4063882000009471;2583
133;0.4094479000013962;2583
134;0.4123929000015778;2583
135;0.4151383000007627;2583
136;0.4183318000013969;2583
137;0.42142470000180765;2584
138;0.4244585000014922;2584
139;0.4268948000008095;2585
140;0.4289178000017273;2585
141;0.4309322000008251;2585
142;0.43287400000008347;2585
143;0.4354650000004767;2585
144;0.4394253000009485;2585
145;0.4434255000014673;2585
146;0.44701920000079554;2585
147;0.4504949000001943;2586
148;0.4532760000001872;2586
149;0.4560402000006434;2586
150;0.4592592000008153;2586
151;0.4632697000015469;2586
152;0.4660023000014917;2586
153;0.4690935000016907;2585
154;0.4724649000017962;2585
155;0.4753602000000683;2585
156;0.47831520000181627;2585
157;0.4812911000008171;2584
158;0.48428510000121605;2585
159;0.4871895000014774;2584
160;0.49094260000129;2584
161;0.4929109000004246;2584
162;0.49527370000032533;2584
163;0.49795780000022205;2584
164;0.499822600000698;2584
165;0.503090100000918;2584
166;0.5060923000000912;2583
167;0.5091074000010849;2583
168;0.5120355000017298;2583
169;0.5149096000004647;2583
170;0.5169060000007448;2583
171;0.5188859000008961;2583
172;0.520876300000964;2583
173;0.5228512000012415;2583
174;0.5248389000007592;2582
175;0.5268032000003586;2582
176;0.5288448000010249;2582
177;0.5308496000016021;2582
178;0.5328492000007827;2582
179;0.534839900001316;2582
180;0.5368146000000706;2582
181;0.5388415000015812;2581
182;0.5409814000013284;2582
183;0.542938000000504;2582
184;0.5459721000006539;2582
185;0.5478435000004538;2582
186;0.5498346000003949;2582
187;0.5518079000012222;2581
188;0.5539870000011433;2581
189;0.5569678000010754;2581
190;0.559986200001731;2581
191;0.5633190000007744;2581
192;0.5659547000013845;2581
193;0.5679645000000164;2580
194;0.569946900001014;2580
195;0.5730939000004582;2580
196;0.5761230000007345;2580
197;0.57911470000181;2580
198;0.5818840000010823;2579
199;0.5842959000001429;2579
200;0.5873251000011805;2579
201;0.5899779000010312;2578
202;0.5929754000007961;2578
203;0.5963295000001381;2578
204;0.6000831000001199;2577
205;0.6032089000000269;2577
206;0.6061534000000393;2576
207;0.6093491000010545;2576
208;0.6121661000015592;2576
209;0.614907500001209;2575
210;0.6169124000007287;2575
211;0.6188609000000724;2575
212;0.6220211000018026;2575
213;0.6251026000009006;2575
214;0.6281457000004593;2574
215;0.6309376000008342;2573
216;0.6342538000008062;2573
217;0.6371447000001353;2572
218;0.6401431000012963;2571
219;0.6431519000016124;2571
220;0.6462995000001683;2570
221;0.6490249000016775;2570
222;0.6520850000015344;2569
223;0.6551181000013457;2569
224;0.6581561000002694;2569
225;0.6609807000004366;2568
226;0.6639329000008729;2567
227;0.6669559000001755;2567
228;0.6702408000001014;2566
229;0.6732348000005004;2566
230;0.676189500001783;2565
231;0.6789643000010983;2565
232;0.6819699000006949;2564
233;0.6839601000010589;2564
234;0.6869654000001901;2563
235;0.6900534000014886;2562
236;0.6928989000007277;2562
237;0.6961073000002216;2561
238;0.6990466000006563;2561
239;0.7020921000003;2560
240;0.7051079000011669;2560
241;0.7080630000000383;2559
242;0.7111969000015961;2559
243;0.7139474000014161;2558
244;0.7171868000004906;2557
245;0.7201755000005505;2557
246;0.7228779000015493;2556
247;0.726136300001599;2555
248;0.7289721000015561;2554
249;0.7311070000014297;2553
250;0.733993100000589;2553
251;0.7369954000005237;2552
252;0.7399435000006633;2551
253;0.7429232000013144;2551
254;0.746428400001605;2550
255;0.7489434000017354;2549
256;0.7519427000006544;2548
257;0.7542902000004688;2547
258;0.7584424000015133;2546
259;0.762438600000678;2545
260;0.7650012000012794;2544
261;0.7682027000009839;2544
262;0.7711858000002394;2543
263;0.7739344000001438;2541
264;0.7770040000013978;2540
265;0.7798940000011498;2540
266;0.7831654000001436;2538
267;0.7862032000011823;2537
268;0.7890496000018175;2536
269;0.7919953000000532;2536
270;0.7949400000015885;2535
271;0.7969169000007241;2534
272;0.7988995000014256;2533
273;0.8009199000007357;2532
274;0.8029156000011426;2532
275;0.8049043000009988;2531
276;0.8069328000001406;2530
277;0.8089097000010952;2530
278;0.810882000001584;2529
279;0.8128190000006725;2529
280;0.8149271000002045;2528
281;0.8167899000000034;2527
282;0.8199840000015683;2526
283;0.8222401000002719;2525
284;0.8251999000003707;2524
285;0.828253700001369;2524
286;0.8309984000006807;2522
287;0.8339685000009922;2521
288;0.8372158000001946;2520
289;0.8399934000008216;2519
290;0.8419759000007616;2518
291;0.843893900000694;2518
292;0.845850400000927;2517
293;0.8480510000008508;2517
294;0.8510414000011224;2516
295;0.854026300001351;2515
296;0.8572383000009722;2514
297;0.8602540000010777;2513
298;0.8629009000014776;2512
299;0.8659833000001527;2511
300;0.8679426000016974;2509
301;0.8699481000003289;2508
302;0.871859000000768;2508
303;0.875119000000268;2507
304;0.8780914000017219;2506
305;0.8810708000000886;2505
306;0.8842622000011033;2504
307;0.8872618000004877;2503
308;0.8902732000005926;2501
309;0.8929710000011255;2500
310;0.8960350000015751;2499
311;0.8991188000018155;2498
312;0.9021910000010394;2497
313;0.9051287000002048;2496
314;0.9079088000016782;2495
315;0.9109079000008933;2493
316;0.9139285000001109;2492
317;0.9169210000000021;2491
318;0.9199209000016708;2490
319;0.9229230000000825;2488
320;0.9259615000009944;2488
321;0.9279422000017803;2487
322;0.9299294000011287;2486
323;0.9319299000017054;2485
324;0.9339673000013136;2484
325;0.9371724000011454;2483
326;0.9398054000012053;2482
327;0.943196900001567;2481
328;0.9462177000004885;2479
329;0.9492060000011406;2478
330;0.9520463000008021;2476
331;0.9549889000008989;2475
332;0.9580632000015612;2474
333;0.9610060000013618;2472
334;0.9640297000005376;2471
335;0.9670383000011498;2470
336;0.9701471000007587;2468
337;0.9731520000004821;2467
338;0.9761663000008411;2466
339;0.9791383000010683;2464
340;0.9821646000000328;2463
341;0.9851152000010188;2462
342;0.9879405000010593;2460
343;0.9899370000002818;2459
344;0.9920905000017228;2458
345;0.9950637000001734;2457
346;0.9979245000013179;2456
347;0.9999879000006331;2454
348;1.0029480000011972;2454
349;1.0049373000001651;2453
350;1.0069298000016715;2452
351;1.0089294000008522;2451
352;1.0109199000016815;2450
353;1.0128074000003835;2449
354;1.0149028000014368;2448
355;1.0169202000015503;2448
356;1.018880600000557;2447
357;1.0208679000006669;2446
358;1.022863200001666;2445
359;1.0251990000015212;2445
360;1.028206200000568;2444
361;1.030975200001194;2443
362;1.034521900000982;2441
363;1.0385224000001472;2440
364;1.0414790000013454;2438
365;1.0444728000002215;2437
366;1.048117700000148;2435
367;1.0511147000015626;2434
368;1.054111000001285;2433
369;1.0572328000016569;2432
370;1.0600240000003396;2430
371;1.0628992000001745;2429
372;1.0659223000002385;2427
373;1.0679442000000563;2426
374;1.0712013000011211;2425
375;1.0742434000003414;2424
376;1.077033500001562;2422
377;1.0797766000014235;2421
378;1.0819237000014255;2420
379;1.0841455000008864;2419
380;1.0870455000003858;2418
381;1.0900262000013754;2417
382;1.0932655000015075;2416
383;1.0961544000001595;2415
384;1.0995618000015384;2414
385;1.1034582000011142;2412
386;1.1064143000003241;2411
387;1.1093451000015193;2410
388;1.1119427000012365;2409
389;1.1139408000017283;2408
390;1.117005700001755;2407
391;1.1192574000015156;2406
392;1.122114000001602;2405
393;1.1251236000007339;2403
394;1.127945300000647;2402
395;1.1298850000002858;2401
396;1.1318939000011596;2400
397;1.1339053000010608;2399
398;1.1357618000001821;2399
399;1.1377656000004208;2398
400;1.1399470000014844;2397
401;1.1418641000000207;2396
402;1.1438248000013118;2395
403;1.1458333000009588;2394
404;1.1478927000007388;2393
405;1.149919300001784;2392
406;1.1518973000002006;2391
407;1.153952800001207;2390
408;1.1559013000005507;2389
409;1.1578198000006523;2389
410;1.1598603000002186;2388
411;1.1618641000004573;2387
412;1.1638656000013725;2385
413;1.1659018000009382;2385
414;1.1679024000004574;2383
415;1.169930400001249;2383
416;1.1718410000012227;2381
417;1.173806600001626;2381
418;1.175772100001268;2380
419;1.177756800001589;2379
420;1.1799265000008745;2378
421;1.1817981000003783;2377
422;1.1838038000005326;2376
423;1.18579630000022;2376
424;1.1877966000010929;2374
425;1.1898269000012078;2374
426;1.1918245000015304;2373
427;1.1937962000010884;2372
428;1.1958627000003617;2371
429;1.1979113000015786;2370
430;1.1999557000017376;2369
431;1.201941800001805;2369
432;1.2039078000016161;2368
433;1.2058092000006582;2367
434;1.2078350000010687;2366
435;1.209771700001511;2366
436;1.2117682000007335;2365
437;1.2138111000003846;2364
438;1.215886900001351;2363
439;1.2178704000016296;2363
440;1.2199652000017522;2362
441;1.221936200001437;2361
442;1.2240286000014748;2360
443;1.2269588000017393;2359
444;1.2289352000007057;2358
445;1.2309516000004805;2357
446;1.2329341000004206;2356
447;1.234899700000824;2356
448;1.2368431000013516;2355
449;1.238931900001262;2354
450;1.2409259000014572;2353
451;1.2429340000016964;2352
452;1.2449265000013838;2351
453;1.246925100000226;2350
454;1.2489227000005485;2350
455;1.2509353000004921;2349
456;1.252775200000542;2348
457;1.256197600001542;2347
458;1.2591276000002836;2346
459;1.2621365000013611;2345
460;1.2650163000016619;2343
461;1.2682088000001386;2342
462;1.2711720000006608;2341
463;1.2741644000016095;2340
464;1.277145500000188;2338
465;1.279954400000861;2337
466;1.283147200001622;2337
467;1.2861909000002925;2335
468;1.2891598000005615;2334
469;1.2921716000000742;2333
470;1.2951533000014024;2332
471;1.298227000001134;2330
472;1.3009262000014132;2329
473;1.3029332000005525;2328
474;1.3051268000017444;2328
475;1.308124000001044;2327
476;1.3110996000013984;2325
477;1.3138695000016014;2325
478;1.3159880000002886;2324
479;1.3180037000001903;2323
480;1.3201270000008662;2322
481;1.3232487000004767;2322
482;1.3258965000004537;2321
483;1.3279054000013275;2320
484;1.3298063000002003;2319
485;1.3319006000001536;2318
486;1.3351107000016782;2317
487;1.3382407000008243;2316
488;1.3414659000009124;2315
489;1.344127300000764;2314
490;1.3472547000001214;2313
491;1.3501864000008936;2312
492;1.353031100001317;2311
493;1.3560541000006197;2309
494;1.3590524000010191;2308
495;1.361905100000513;2307
496;1.3639364000009664;2306
497;1.3658655000017461;2306
498;1.3678909000009298;2305
499;1.3699074000014662;2305
500;1.3720983000002889;2305
501;1.3749078000000736;2304
502;1.3781059000011737;2303
503;1.3808859000000666;2302
504;1.3830898000014713;2302
505;1.386044500000935;2301
506;1.3880511000006663;2300
507;1.3909464000007574;2299
508;1.393920700000308;2298
509;1.3958984000000783;2297
510;1.3981177000005118;2297
511;1.4009045000002516;2296
512;1.4028940000007424;2296
513;1.4050767000007909;2296
514;1.4081063000012364;2295
515;1.4110466000001907;2295
516;1.4129277000010916;2294
517;1.4160817000010866;2294
518;1.4189971000014339;2293
519;1.4219205000008515;2292
520;1.4239393000007112;2292
521;1.4258357000016986;2291
522;1.4279050000004645;2291
523;1.4298210000015388;2291
524;1.4318944000006013;2290
525;1.4338580000003276;2290
526;1.4358477000005223;2290
527;1.4378447000017331;2290
528;1.4397947000015847;2289
529;1.4418085000015708;2289
530;1.44381550000071;2288
531;1.4458397000016703;2288
532;1.4478193000013562;2287
533;1.449959300000046;2287
534;1.4519527000011294;2287
535;1.4539260000001377;2286
536;1.456973200001812;2286
537;1.4589468000012857;2285
538;1.4609241000016482;2285
539;1.4628086000011535;2285
540;1.4650771000015084;2284
541;1.4681183000011515;2284
542;1.4708673000004637;2283
543;1.4738818000005267;2282
544;1.4761318000000756;2281
545;1.4791324000016175;2281
546;1.4821558000003279;2280
547;1.4852052000005642;2280
548;1.4884430000001885;2279
549;1.4914117000007536;2279
550;1.4944568000009895;2278
551;1.4981780000016443;2278
552;1.5012192000012874;2277
553;1.5042397000015626;2277
554;1.5070739000002504;2278
555;1.5101112000011199;2277
556;1.5129948000012519;2277
557;1.515933300001052;2277
558;1.517924400000993;2277
559;1.5199615000001359;2277
560;1.5231276000013168;2277
561;1.5261211000015464;2276
562;1.5289629000017158;2276
563;1.530943700001444;2275
564;1.5339505000010831;2275
565;1.5359657000008156;2275
566;1.5379431000001205;2275
567;1.541170400001647;2275
568;1.5441786000010325;2275
569;1.5483379000015702;2275
570;1.5510462000002008;2275
571;1.5540684000006877;2275
572;1.5573781000002782;2275
573;1.5604690000000119;2275
574;1.5630149000007805;2275
575;1.5663705000006303;2275
576;1.5689740000016172;2275
577;1.571988900001088;2275
578;1.5752206000015576;2275
579;1.5781337000007625;2274
580;1.5809867000007216;2274
581;1.584041600001001;2274
582;1.5869826000016474;2273
583;1.590397000001758;2273
584;1.593335900000966;2273
585;1.5959320000001753;2273
586;1.5983324000007997;2273
587;1.6008826000015688;2273
588;1.6044832000006863;2273
589;1.6073977000014565;2274
590;1.6104583000014827;2274
591;1.6129370000016934;2274
592;1.6151882000012847;2274
593;1.6178527000010945;2274
594;1.6200284000005922;2274
595;1.6230398000006971;2275
596;1.6249625000000378;2275
597;1.627071300001262;2274
598;1.6299024000018107;2274
599;1.6329928000013751;2274
600;1.6359700000011799;2274
601;1.6383147000015015;2274
602;1.6414488000009442;2275
603;1.6443399000017962;2275
604;1.646864700000151;2275
605;1.6500102000009065;2275
606;1.65240360000098;2275
607;1.6550567000012961;2276
608;1.6578813000014634;2276
609;1.6610163000004832;2276
610;1.6628984000017226;2276
611;1.6651145000014367;2277
612;1.6680561000011949;2277
613;1.6710692000015115;2277
614;1.6730612000010296;2277
615;1.676166800001738;2278
616;1.6790314000008948;2278
617;1.6821164000011777;2278
618;1.6849910000000818;2279
619;1.6869818000013765;2279
620;1.6898487000016758;2279
621;1.6918175000009796;2280
622;1.6939068000010593;2280
623;1.6958366000017122;2280
624;1.6979239000011148;2280
625;1.6999142000004213;2281
626;1.7021828000015375;2282
627;1.7050558000009914;2282
628;1.7068626000000222;2283
629;1.7088815000006434;2283
630;1.7109504000000015;2284
631;1.7131125000014435;2284
632;1.7159393000001728;2285
633;1.7178792000013345;2285
634;1.7198733000004722;2286
635;1.7220454000016616;2286
636;1.725056000001132;2287
637;1.7286983000012697;2288
638;1.730944200000522;2289
639;1.73441510000157;2289
640;1.7375489000005473;2290
641;1.7403884000013932;2291
642;1.7430050000002666;2291
643;1.7462745000011637;2292
644;1.7493516000013187;2292
645;1.7519723000004888;2293
646;1.7539446000009775;2293
647;1.7559326000009605;2293
648;1.7593738000014127;2294
649;1.7624195000007603;2294
650;1.7650374000004376;2295
651;1.7670289000016055;2295
652;1.7699956000014936;2296
653;1.772136400000818;2296
654;1.7752892000007705;2297
655;1.7780730000013136;2297
656;1.7810194000012416;2298
657;1.7839733000000706;2299
658;1.7875125000009575;2299
659;1.7904318000000785;2300
660;1.7933903000011924;2300
661;1.7961615000003803;2301
662;1.8004117000000406;2301
663;1.8044765000013285;2302
664;1.808414500001163;2303
665;1.8120891000016854;2305
666;1.8149700000012672;2305
667;1.8169347000002745;2306
668;1.818942000001698;2307
669;1.8221573000009812;2308
670;1.8251919000013004;2308
671;1.8279992000007041;2309
672;1.8309763000015664;2310
673;1.8329861000001983;2311
674;1.8364368000002287;2311
675;1.8390463000014279;2312
676;1.8422041000012541;2313
677;1.8451661000017339;2314
678;1.8482883000015136;2315
679;1.8510943000001134;2316
680;1.853985300000204;2317
681;1.8571610000017245;2318
682;1.8599710000016785;2319
683;1.8628109000001132;2320
684;1.866150400001061;2321
685;1.8689363000012236;2322
686;1.87217370000144;2323
687;1.8751206000015372;2324
688;1.8779666000009456;2324
689;1.8798958000006678;2325
690;1.8819463000018004;2326
691;1.8852738000005047;2326
692;1.8881153000002087;2327
693;1.8908711000003677;2328
694;1.8942410000017844;2329
695;1.897007500001564;2331
696;1.900157100000797;2331
697;1.9019471000010526;2332
698;1.9039243000006536;2333
699;1.9059510000006412;2333
700;1.909013300000879;2334
701;1.9109172000007675;2335
702;1.9128177000002324;2336
703;1.9149381000006542;2336
704;1.9169316000006802;2337
705;1.9189221000015095;2338
706;1.9209301000009873;2338
707;1.9232785000003787;2339
708;1.9260701000002882;2339
709;1.9292605000009644;2341
710;1.9319727000001876;2342
711;1.934255000000121;2343
712;1.937263100000564;2343
713;1.9401371000003564;2345
714;1.9429563000012422;2346
715;1.9459435000007943;2347
716;1.9479882000014186;2348
