;time;amplitude
0;0.007478100000298582;2491
1;0.011395499999707681;2492
2;0.015683800000260817;2492
3;0.019249900000431808;2492
4;0.023678400000790134;2491
5;0.02772980000008829;2492
6;0.03138559999933932;2492
7;0.03572850000091421;2492
8;0.03932829999939713;2492
9;0.0437024000002566;2492
10;0.04730100000051607;2492
11;0.05172880000100122;2492
12;0.055307900000116206;2492
13;0.05822219999936351;2492
14;0.06230580000010377;2492
15;0.06533830000080343;2492
16;0.06826050000017858;2492
17;0.07163880000007339;2492
18;0.07566980000046897;2492
19;0.07952629999999772;2492
20;0.08322960000077728;2492
21;0.08614490000036312;2492
22;0.08940780000011728;2492
23;0.09328090000053635;2492
24;0.09729049999987183;2492
25;0.10012300000016694;2492
26;0.10348850000082166;2491
27;0.10720320000109496;2491
28;0.11154759999953967;2491
29;0.11512430000038876;2492
30;0.11846710000099847;2492
31;0.12254249999932654;2492
32;0.12664799999947718;2491
33;0.13022099999943748;2491
34;0.13313089999974181;2492
35;0.136507299999721;2491
36;0.14071859999967273;2492
37;0.14443019999998796;2492
38;0.14804259999982605;2492
39;0.15151680000053602;2492
40;0.15508950000003097;2492
41;0.15814859999954933;2492
42;0.16107340000053227;2492
43;0.16406409999945026;2492
44;0.1671593999999459;2492
45;0.1702939000006154;2492
46;0.1731020000006538;2492
47;0.176182000001063;2492
48;0.17909719999988738;2492
49;0.1821615999997448;2492
50;0.185088000000178;2492
51;0.1882286000000022;2492
52;0.1910955000003014;2491
53;0.1939992000006896;2491
54;0.1973450999994384;2491
55;0.20155739999972866;2492
56;0.20550060000095982;2491
57;0.21737419999954;2491
58;0.2321934000010515;2491
59;0.2431971000005433;2491
60;0.251761900000929;2491
61;0.2589716000002227;2492
62;0.2609260000008362;2492
63;0.263921499999924;2492
64;0.2659693999994488;2492
65;0.27108229999976174;2492
66;0.274029199999859;2492
67;0.27689099999952305;2492
68;0.2798657000003004;2492
69;0.2829524999997375;2492
70;0.2847308000000339;2492
71;0.2867227000006096;2492
72;0.2887284999997064;2492
73;0.2908948000003875;2492
74;0.29288850000011735;2492
75;0.2949671999995189;2492
76;0.29789850000088336;2492
77;0.2997995000005176;2491
78;0.30178300000079616;2491
79;0.3039117000007536;2492
80;0.30590789999951085;2492
81;0.3078067000005831;2491
82;0.30978309999954945;2491
83;0.3117849999998725;2491
84;0.3138517999996111;2491
85;0.315995799999655;2491
86;0.3188508000002912;2491
87;0.32203470000058587;2492
88;0.32536980000077165;2491
89;0.3294263999996474;2491
90;0.33241690000068047;2490
91;0.33642220000001544;2491
92;0.34034889999929874;2491
93;0.34443000000101165;2491
94;0.34839219999958004;2491
95;0.35234350000064296;2491
96;0.3564710999999079;2491
97;0.359000800001013;2491
98;0.3619490000000951;2491
99;0.3638449000009132;2491
100;0.3657853000004252;2491
101;0.36773490000086895;2491
102;0.3697873000000982;2491
103;0.37185130000034405;2491
104;0.3749788000004628;2491
105;0.3782031000009738;2491
106;0.38082570000005944;2492
107;0.38417029999982333;2492
108;0.3868352000008599;2492
109;0.3887943000008818;2491
110;0.39100839999991877;2491
111;0.39431250000052387;2492
112;0.39675460000034946;2492
113;0.3990025000002788;2492
114;0.40188669999952253;2492
115;0.4049042999995436;2492
116;0.40809970000009343;2492
117;0.4109793000006903;2492
118;0.4139558000006218;2492
119;0.4171544000000722;2492
120;0.42001929999969434;2492
121;0.42301950000000943;2492
122;0.4260606000007101;2492
123;0.429090499999802;2492
124;0.4322004999994533;2492
125;0.4351693999997224;2492
126;0.43821890000072017;2492
127;0.4412100999998074;2492
128;0.4442364999995334;2492
129;0.44689719999951194;2492
130;0.4502362000002904;2491
131;0.4532259999996313;2491
132;0.4562329000000318;2491
133;0.4592315999998391;2491
134;0.46224009999968985;2491
135;0.46500600000035774;2492
136;0.4680850000004284;2491
137;0.47108789999947476;2491
138;0.4740440999994462;2491
139;0.4771008999996411;2491
140;0.4798372000004747;2491
141;0.48309320000043954;2491
142;0.486069900000075;2491
143;0.4890722000000096;2491
144;0.49210690000109025;2491
145;0.49481030000060855;2491
146;0.4979488000008132;2491
147;0.5012256999998499;2491
148;0.5042025000002468;2491
149;0.5072053999992931;2491
150;0.5102757999993628;2491
151;0.5131849000008515;2492
152;0.5162352000006649;2491
153;0.5189819000006537;2491
154;0.52222939999956;2491
155;0.5252371999995376;2492
156;0.5281128000005992;2492
157;0.5308564999995724;2491
158;0.5330979000009393;2492
159;0.5362017000006745;2491
160;0.5392322999996395;2492
161;0.5421249999999418;2492
162;0.5451420000008511;2492
163;0.5480225999999675;2492
164;0.551157100000637;2492
165;0.5541606999995565;2491
166;0.5571899999995367;2491
167;0.5602235999995173;2491
168;0.5632201999997051;2491
169;0.5661658000008174;2491
170;0.5692220000000816;2492
171;0.572215000000142;2492
172;0.5747682000001078;2492
173;0.5766985000009299;2492
174;0.5786924000003637;2492
175;0.58069389999946;2492
176;0.5826782000003732;2492
177;0.5846758999996382;2492
178;0.5871733999993012;2492
179;0.5897115000007034;2492
180;0.5925459000009141;2492
181;0.5947625000007974;2493
182;0.5968384000007063;2492
183;0.598755799999708;2492
184;0.6018127999996068;2492
185;0.603946299999734;2493
186;0.6067717000005359;2493
187;0.6086971999993693;2492
188;0.6106768999998167;2492
189;0.612667400000646;2493
190;0.6147053999993659;2493
191;0.6168729000000894;2493
192;0.6187408999994659;2492
193;0.6207756999992853;2492
194;0.6227589000009175;2493
195;0.6248369999993884;2493
196;0.6267578999995749;2493
197;0.6286760000002687;2493
198;0.6307001000004675;2493
199;0.6326843000006193;2493
200;0.6347098000005644;2492
201;0.6366963000000396;2493
202;0.638714799999434;2493
203;0.6406857000001764;2492
204;0.6426805999999488;2492
205;0.644740499999898;2492
206;0.646735100001024;2492
207;0.6491729999997915;2492
208;0.6517817999992985;2491
209;0.6537399000008008;2491
210;0.6557257999993453;2491
211;0.6577250000009371;2491
212;0.6597371000007115;2491
213;0.6619050000008428;2491
214;0.6639355999996042;2491
215;0.6677424000008614;2491
216;0.670569500000056;2491
217;0.6728027999997721;2491
218;0.6748466000008193;2491
219;0.6767285000005359;2491
220;0.6788343999996869;2491
221;0.681435300000885;2491
222;0.6838284999994357;2491
223;0.6873405000005732;2491
224;0.6899766999995336;2491
225;0.6918664000004355;2491
226;0.6941234000005352;2490
227;0.6967430999993667;2491
228;0.6990576999996847;2491
229;0.7019842000008794;2491
230;0.7049034000010579;2490
231;0.7079071999996813;2491
232;0.7098913000008906;2491
233;0.7120758000000933;2491
234;0.7148704000010184;2491
235;0.7179840999997396;2492
236;0.7209681000003911;2492
237;0.7238923000004434;2492
238;0.726882700000715;2492
239;0.7299001000010321;2492
240;0.7317832999997336;2492
241;0.7349835000004532;2492
242;0.737869700000374;2492
243;0.7408680000007735;2492
244;0.7438712000002852;2492
245;0.7459092999997665;2491
246;0.7478104000001622;2492
247;0.7499060000009194;2492
248;0.7530437999994319;2492
249;0.7564342000005126;2492
250;0.7604843999997684;2492
251;0.7634190000007948;2492
252;0.7658991999996942;2492
253;0.7700494000000617;2492
254;0.772889199999554;2492
255;0.7748556999995344;2493
256;0.77786770000057;2493
257;0.7797098999999434;2492
258;0.781842800000959;2492
259;0.7853391000007832;2492
260;0.7879866000002949;2492
261;0.7908571000007214;2492
262;0.7943132000000332;2492
263;0.7969437000010657;2492
264;0.7999455000008311;2492
265;0.8035061999999016;2492
266;0.8073211000009906;2492
267;0.8113539999994828;2492
268;0.813949400000638;2492
269;0.8172565999993822;2492
270;0.8200061999996251;2493
271;0.8232972999994672;2492
272;0.8270921000003;2492
273;0.8297457000007853;2493
274;0.831808999999339;2493
275;0.834985699999379;2493
276;0.837764399999287;2492
277;0.8400247000008676;2493
278;0.842972300000838;2492
279;0.8460463999999774;2493
280;0.8492843999993056;2492
281;0.8518996000002517;2492
282;0.8538442000008217;2492
283;0.856204899999284;2493
284;0.8589513000006264;2493
285;0.8609589000006963;2493
286;0.8638169000005291;2493
287;0.8658544000008987;2493
288;0.8689942000000883;2492
289;0.8718310999993264;2492
290;0.8739511000003404;2492
291;0.876933999999892;2492
292;0.8790363999996771;2492
293;0.8807097999997495;2492
294;0.8829891999994288;2492
295;0.8859121999994386;2492
296;0.8890272999997251;2492
297;0.891802899999675;2492
298;0.8938121000010142;2491
299;0.8959794000002148;2491
300;0.8988969000001816;2491
301;0.9021281000004819;2491
302;0.918152199999895;2491
303;0.9429522000009456;2491
304;0.9458028000008198;2491
305;0.9478211999994528;2491
306;0.9499298999999155;2491
307;0.9517240999994101;2491
308;0.9539304000008997;2491
309;0.9569427999995241;2492
310;0.9601982999993197;2492
311;0.9629912000000331;2492
312;0.9678041000006488;2492
313;0.9712751999995817;2492
314;0.9740232999993168;2492
315;0.9772400000001653;2492
316;0.9798393000000942;2491
317;0.9821621999999479;2491
318;0.9852609999998094;2491
319;0.9882286000010936;2491
320;0.9910612000003312;2491
321;0.9938173000009556;2491
322;0.9959650000000693;2491
323;0.9991184000009525;2491
324;1.0019312000003993;2491
325;1.0050412000000506;2491
326;1.0084065999999439;2491
327;1.0114243999996688;2491
328;1.0150692999995954;2491
329;1.0194972999997844;2491
330;1.0234727000006387;2492
331;1.0274776000005659;2491
332;1.0309672000003047;2491
333;1.0344944999997097;2491
334;1.0384862999999314;2491
335;1.0425064000010025;2491
336;1.046136299999489;2492
337;1.0490442000009352;2492
338;1.0520130000004428;2492
339;1.055080000000089;2492
340;1.058167200000753;2492
341;1.060892800000147;2492
342;1.063816300000326;2492
343;1.0672565000004397;2492
344;1.0702113000006648;2492
345;1.0732129999996687;2492
346;1.0759397000001627;2492
347;1.079215199999453;2492
348;1.0820908999994572;2491
349;1.0852518000010605;2491
350;1.0882595000002766;2491
351;1.0911978999993153;2491
352;1.0942697000009503;2491
353;1.0969886000002589;2491
354;1.1002387999997154;2491
355;1.1031834999994317;2491
356;1.1061974999993254;2491
357;1.1091204999993352;2491
358;1.1122206000000006;2491
359;1.1150379000009707;2491
360;1.1182893000004697;2491
361;1.1210752999995748;2491
362;1.1238835000003746;2491
363;1.125846700000693;2491
364;1.1278648999996221;2491
365;1.1297412000003533;2491
366;1.1320651000005455;2491
367;1.135076399999889;2491
368;1.1382267999997566;2492
369;1.141078099999504;2492
370;1.1442425000004732;2492
371;1.1468258000004425;2492
372;1.149022800000239;2492
373;1.1522079999995185;2492
374;1.15478339999936;2492
375;1.1582113000004028;2492
376;1.1610786000001099;2492
377;1.163908000000447;2492
378;1.1670804999994289;2492
379;1.1700041000003694;2492
380;1.1730748999998468;2492
381;1.1760666000009223;2492
382;1.179212600000028;2492
383;1.1821569000003365;2492
384;1.1851772000009078;2492
385;1.188034200000402;2491
386;1.190963400000328;2491
387;1.194159500000751;2491
388;1.1968135999995866;2491
389;1.1989905000009458;2491
390;1.2019531999994797;2491
391;1.2048914000006334;2491
392;1.2070540000004257;2492
393;1.2100055000009888;2491
394;1.2128716999995959;2491
395;1.2148371000002953;2491
396;1.2179553999994823;2491
397;1.2198332000007213;2491
398;1.221966799999791;2491
399;1.22394820000045;2491
400;1.225791200000458;2491
401;1.2279837999994925;2491
402;1.2309040000000095;2491
403;1.233856900000319;2491
404;1.2358920999995462;2491
405;1.2379027000006317;2491
406;1.2398188000006485;2491
407;1.2419239000009838;2491
408;1.2439400000002934;2491
409;1.2467921999996179;2491
410;1.2489342999997461;2492
411;1.2522239000008994;2492
412;1.2547804000005272;2492
413;1.256920199999513;2492
414;1.2588063000002876;2492
415;1.2609272000008787;2492
416;1.2628399999994144;2492
417;1.2651449000004504;2492
418;1.2679236000003584;2492
419;1.2702755000009347;2492
420;1.274000100000194;2492
421;1.277068600000348;2492
422;1.279764900000373;2492
423;1.2818193000002793;2492
424;1.285081199999695;2492
425;1.2878849000007904;2492
426;1.2910418000010395;2491
427;1.2938890999994328;2491
428;1.296895499999664;2491
429;1.2999746000004961;2491
430;1.3034354999999778;2491
431;1.3073889999996027;2491
432;1.3101628000003984;2491
433;1.3128988000007666;2491
434;1.3159240000004502;2491
435;1.3178827000010642;2491
436;1.3199189999995724;2491
437;1.3218814000010752;2491
438;1.3239632000004349;2491
439;1.3259039999993547;2491
440;1.3290317999999388;2491
441;1.3318689999996423;2491
442;1.3338550999997096;2491
443;1.3359139999993204;2491
444;1.337954799999352;2491
445;1.3399141000008967;2491
446;1.3419465000006312;2490
447;1.344992899999852;2490
448;1.3481102999994619;2490
449;1.350977199999761;2490
450;1.3529171999998653;2490
451;1.3548955999995087;2490
452;1.3569680000000517;2490
453;1.3588701999997284;2490
454;1.36100179999994;2490
455;1.3628336000001582;2491
456;1.3648527000004833;2491
457;1.3679826999996294;2491
458;1.3711333999999624;2491
459;1.3741057999995974;2492
460;1.3769520000005286;2492
461;1.3798876000000746;2491
462;1.3819237000006979;2491
463;1.3839690999993763;2491
464;1.385963400000037;2491
465;1.3878887999999279;2491
466;1.3897892999993928;2491
467;1.3918689000001905;2491
468;1.3950132000009035;2491
469;1.3968198000002303;2491
470;1.39899990000049;2491
471;1.4020013000008476;2492
472;1.4049957999995968;2492
473;1.4079860000001645;2491
474;1.4098709000008967;2492
475;1.4118780999997398;2492
476;1.413873200001035;2492
477;1.4157518000010896;2492
478;1.4179779999994935;2492
479;1.419960600000195;2492
480;1.4219222000010632;2492
481;1.4238380000006146;2492
482;1.4257684999993216;2492
483;1.427926500000467;2492
484;1.4308065000004717;2492
485;1.432868400001098;2492
486;1.4349371999996947;2491
487;1.4377629999999044;2492
488;1.4399370000010094;2492
489;1.4419364999994286;2492
490;1.4449162000000797;2491
491;1.4479950000004465;2491
492;1.4520284999998694;2491
493;1.4551188999994338;2491
494;1.4579274999996414;2491
495;1.4610926000004838;2491
496;1.4639430000006541;2491
497;1.4668999000004987;2491
498;1.470050199999605;2492
499;1.4730682999997953;2491
500;1.4760600999998132;2491
501;1.4789020999996865;2491
502;1.4811079999999492;2491
503;1.4840280000007624;2491
504;1.486855999999534;2491
505;1.4889775999999983;2492
506;1.4907638000004226;2492
507;1.4929721999997128;2492
508;1.494919500000833;2492
509;1.4978217000007135;2492
510;1.4998507000000245;2492
511;1.5019659999998112;2492
512;1.5039378000001307;2492
513;1.5058404000010341;2491
514;1.5078998000008141;2491
515;1.5109735000005458;2491
516;1.5138298000001669;2491
517;1.5159110000004148;2491
518;1.5179368000008253;2491
519;1.520936700000675;2491
520;1.522908799999641;2491
521;1.5258217000009608;2491
522;1.5279668000002857;2491
523;1.5310411999998905;2491
524;1.5340439999999944;2491
525;1.5370359999997163;2491
526;1.5399428000000626;2491
527;1.5430343999996694;2491
528;1.545915700000478;2491
529;1.5480177000008553;2490
530;1.5510138000008737;2491
531;1.5539196000008815;2491
532;1.557009800000742;2491
533;1.5600260999999591;2490
534;1.562868700000763;2490
535;1.5651880000004894;2490
536;1.5682806000004348;2490
537;1.5710868000005576;2490
538;1.5739006000003428;2490
539;1.5770682000002125;2490
540;1.5798907000007603;2491
541;1.582947900000363;2490
542;1.5861282999994728;2491
543;1.5891625000003842;2491
544;1.5921180999994249;2491
545;1.5949579000007361;2491
546;1.5981138000006467;2491
547;1.601129000000583;2492
548;1.604101900000387;2491
549;1.6068909000005078;2492
550;1.6101720000006026;2492
551;1.613070699999298;2491
552;1.6161276000002545;2491
553;1.619104999999763;2491
554;1.622129600000335;2491
555;1.6251002000008157;2491
556;1.628094699999565;2491
557;1.6311249999998836;2491
558;1.634261700000934;2491
559;1.6370710999999574;2491
560;1.640108199999304;2491
561;1.6431217000008473;2491
562;1.6461006999998062;2491
563;1.649131000000125;2492
564;1.6521026000009442;2491
565;1.6549252000004344;2491
566;1.657731999999669;2491
567;1.6611451000007946;2491
568;1.66411429999971;2491
569;1.667105200000151;2491
570;1.6701384000007238;2490
571;1.6731526000003214;2490
572;1.6761387000005925;2490
573;1.6791150999997626;2490
574;1.682297600000311;2490
575;1.6851532000000589;2490
576;1.688105799999903;2490
577;1.6911395999995875;2490
578;1.6941179000004922;2489
579;1.6969281000001502;2489
580;1.7001084000003175;2490
581;1.7031105999994907;2489
582;1.7059251999999105;2489
583;1.7078684000007343;2489
584;1.7109271000008448;2489
585;1.7139086999995925;2489
586;1.7172288000001572;2489
587;1.7199703999995108;2489
588;1.7230046999993647;2489
589;1.7261539000010089;2489
590;1.729109800000515;2489
591;1.7322485000004235;2489
592;1.7350697000001674;2489
593;1.7382495000001654;2489
594;1.7411353000006784;2489
595;1.7442073000001983;2489
596;1.7469094000007317;2489
597;1.7502340000010008;2488
598;1.7531060000001162;2488
599;1.7558540999998513;2488
600;1.7592373000006774;2488
601;1.7622315000007802;2488
602;1.7652309000004607;2488
603;1.7678568999999698;2488
604;1.7708292000006622;2488
605;1.7728948999993008;2488
606;1.7749426000009407;2488
607;1.7768861999993533;2487
608;1.7787757999994938;2487
609;1.7808309000010922;2487
610;1.782821700000568;2487
611;1.7849669000006543;2487
612;1.7879102999995666;2487
613;1.7899426999993011;2487
614;1.7919478999992862;2486
615;1.7938840999995591;2486
616;1.7959121000003506;2486
617;1.7978677000010066;2486
618;1.7999183000010817;2486
619;1.8019015000008949;2486
620;1.8038701000004949;2485
621;1.8068760000005568;2486
622;1.8089042000010522;2486
623;1.8119074999995064;2486
624;1.8139542999997502;2486
625;1.8167828999994526;2486
626;1.8188322999994853;2486
627;1.820902200001001;2486
628;1.8228560000006837;2486
629;1.8248602000003302;2486
630;1.8268588000009913;2486
631;1.82888660000026;2486
632;1.8308856000003289;2486
633;1.8328677999998035;2486
634;1.834870900000169;2487
635;1.8369294999993144;2487
636;1.8388651000004756;2487
637;1.8409351000009337;2487
638;1.8429484000007506;2486
639;1.8459115999994538;2486
640;1.8479681000007986;2487
641;1.8509546000004775;2487
642;1.8529945999998745;2487
643;1.855902799999967;2487
644;1.8579597999996622;2486
645;1.8609524000003148;2487
646;1.864021400000638;2487
647;1.8669423000010283;2486
648;1.8689931999997498;2487
649;1.8719706000010774;2486
650;1.8739693999996234;2487
651;1.8769833999995171;2487
652;1.8789677999993728;2487
653;1.8819655000006605;2486
654;1.8849962999993295;2486
655;1.8869943999998213;2486
656;1.88893250000001;2486
657;1.890940999999657;2486
658;1.8939222000008158;2486
659;1.8969742999997834;2486
660;1.9006215000008524;2486
661;1.9046127000001434;2485
662;1.9084571000003052;2485
663;1.9125444000001153;2485
664;1.915474900000845;2484
665;1.9195049000009021;2485
666;1.9235296000006201;2484
667;1.925967799999853;2484
668;1.9295531999996456;2484
669;1.9335375000009662;2484
670;1.937524000000849;2484
671;1.9410353000002942;2484
672;1.9444769000001543;2484
673;1.948492299999998;2484
674;1.9525157999996736;2483
675;1.9564288000001397;2483
676;1.960522299999866;2482
677;1.9642794000010326;2482
678;1.9674579000002268;2482
679;1.971547200000714;2482
680;1.9755311999997502;2482
681;1.9795580000009068;2481
682;1.983533599999646;2481
683;1.9875372000005882;2481
684;1.9915240999998787;2480
685;1.995530600001075;2480
686;1.9984960000001593;2480
687;2.00250430000051;2480
688;2.0065226999995502;2480
689;2.0105321999999433;2480
690;2.0143167999995057;2480
691;2.0184589000000415;2480
692;2.0220219000002544;2479
693;2.025469600001088;2480
694;2.0295619999997143;2479
695;2.0335343000006105;2479
696;2.0374456999998074;2479
697;2.0415494999997463;2478
698;2.0455079000003025;2478
699;2.0484649000009085;2478
700;2.0525104999996984;2478
701;2.0565308000004734;2478
702;2.060537999999724;2478
703;2.064453599999979;2478
704;2.0679964999999356;2478
705;2.070957800000542;2478
706;2.0728030999998737;2477
707;2.0749381000005087;2477
708;2.076949700000114;2477
709;2.07894479999959;2477
710;2.082019900000887;2477
711;2.083993599999303;2476
712;2.0858907000001636;2476
713;2.087970500000665;2476
714;2.0899774999998044;2476
715;2.091974700000719;2475
716;2.0939665000005334;2475
717;2.095954399999755;2475
718;2.099042499999996;2475
