;time;amplitude
0;0.004371599998194142;2481
1;0.00978189999841561;2481
2;0.014856599998893216;2481
3;0.019088799999735784;2481
4;0.023552799999379204;2481
5;0.028262899999390356;2481
6;0.03359459999956016;2481
7;0.03876769999988028;2481
8;0.043305199998940225;2480
9;0.04734279999865976;2481
10;0.051262899998619105;2481
11;0.05531959999825631;2481
12;0.05933740000000398;2481
13;0.06328679999933229;2481
14;0.06731609999951615;2481
15;0.07124239999939164;2481
16;0.07530589999987569;2481
17;0.07935839999845484;2481
18;0.08271119999881194;2480
19;0.08722509999824979;2481
20;0.09116309999990335;2481
21;0.09499259999938658;2481
22;0.09882679999827815;2481
23;0.10161779999907594;2481
24;0.10457469999892055;2481
25;0.10760759999902803;2481
26;0.1105013999986113;2482
27;0.11372449999907985;2482
28;0.11670739999863144;2482
29;0.11971269999958167;2482
30;0.12270339999849966;2482
31;0.12556229999972857;2483
32;0.12875359999998182;2482
33;0.13155189999997674;2482
34;0.134508499999356;2483
35;0.13752729999941948;2483
36;0.14052489999994577;2482
37;0.14351629999873694;2482
38;0.1467224999996688;2482
39;0.14971549999972922;2483
40;0.15272559999903024;2483
41;0.1557249999987107;2483
42;0.15876399999979185;2483
43;0.16172159999950964;2483
44;0.16472329999851354;2483
45;0.16775929999857908;2483
46;0.1707680999988952;2483
47;0.17373219999899447;2483
48;0.17666709999866725;2482
49;0.17975769999975455;2483
50;0.18263529999967432;2482
51;0.1856378999982553;2482
52;0.18867239999963203;2482
53;0.191631799998504;2482
54;0.1945172999985516;2482
55;0.1975133999985701;2482
56;0.2005152999990969;2482
57;0.20351499999924272;2482
58;0.20561669999915466;2482
59;0.20868399999926623;2481
60;0.21160429999872576;2482
61;0.2146387999982835;2482
62;0.2179480999984662;2482
63;0.22093219999987923;2482
64;0.22498239999913494;2482
65;0.22901789999923494;2482
66;0.2328918999992311;2481
67;0.23659849999967264;2481
68;0.23992699999871547;2481
69;0.24290529999962018;2481
70;0.24603819999902043;2481
71;0.2488149999990128;2482
72;0.25181119999979273;2482
73;0.25481459999900835;2482
74;0.2577387999990606;2482
75;0.2605411999993521;2482
76;0.2637200999997731;2482
77;0.2667124999989028;2482
78;0.2697182999982033;2482
79;0.2727521999986493;2482
80;0.2757585999988805;2482
81;0.2784881999996287;2482
82;0.28156719999969937;2482
83;0.2845765999991272;2482
84;0.287567699999272;2482
85;0.2905678999995871;2482
86;0.2935675999997329;2482
87;0.2967568999993091;2481
88;0.2995370999997249;2482
89;0.3031254999987141;2482
90;0.30710069999986445;2482
91;0.31057509999845934;2482
92;0.31398089999856893;2482
93;0.3170025999988866;2482
94;0.32104619999881834;2482
95;0.3250300999989122;2482
96;0.32914959999834537;2482
97;0.3330326999985118;2481
98;0.3370444999982283;2481
99;0.3410452999996778;2481
100;0.3449860999990051;2481
101;0.34899699999914446;2481
102;0.35310279999976046;2481
103;0.3571016999994754;2481
104;0.36058959999900253;2481
105;0.3640774999985297;2481
106;0.36781629999859433;2481
107;0.37109769999915443;2481
108;0.37510649999967427;2481
109;0.379130699999223;2481
110;0.38310699999965436;2481
111;0.3866045999984635;2481
112;0.39002459999937855;2481
113;0.3936552999984997;2481
114;0.3970421999983955;2481
115;0.4010102999982337;2481
116;0.4040188999988459;2481
117;0.4071107999989181;2481
118;0.4107438999999431;2481
119;0.41410219999852416;2482
120;0.417712999998912;2482
121;0.4217274999991787;2482
122;0.42572309999923164;2482
123;0.428746499999761;2482
124;0.4319893999982014;2481
125;0.43502429999898595;2482
126;0.4380381999999372;2482
127;0.4417290999990655;2482
128;0.44602559999839286;2483
129;0.4500345999986166;2482
130;0.4540067999987514;2482
131;0.4576132999991387;2482
132;0.46053269999902113;2482
133;0.4640003999993496;2483
134;0.4679781999984698;2483
135;0.47203319999971427;2483
136;0.4751065999989805;2483
137;0.4791156999999657;2482
138;0.4829737000000023;2482
139;0.48697839999840653;2482
140;0.4909935999985464;2482
141;0.4949345999993966;2483
142;0.49795239999912155;2483
143;0.5020597999991878;2483
144;0.5061351999993349;2483
145;0.5098419999994803;2483
146;0.5128172999993694;2483
147;0.5167611999986548;2483
148;0.5199090999994951;2483
149;0.5227080999993632;2483
150;0.5256730999990396;2483
151;0.5286109999997279;2483
152;0.5316403999986505;2483
153;0.5347639999999956;2483
154;0.5381002999984048;2483
155;0.5421367999988433;2483
156;0.5461480999983905;2483
157;0.5499876999983826;2483
158;0.5539809999991121;2483
159;0.5579933999997593;2483
160;0.5619526999998925;2482
161;0.5660900999992009;2482
162;0.5696450999985245;2482
163;0.572988499998246;2482
164;0.576003899999705;2482
165;0.5789960999991308;2482
166;0.5819611999995686;2482
167;0.5854760999991413;2482
168;0.5884931999989931;2481
169;0.591487199999392;2482
170;0.5944237999992765;2482
171;0.5963193999996292;2482
172;0.599617699999726;2482
173;0.6026833999985683;2482
174;0.605689899999561;2482
175;0.6086169999998674;2482
176;0.6116196999992098;2481
177;0.6146004999991419;2481
178;0.6175068999982614;2482
179;0.6204795999983617;2482
180;0.62350079999851;2482
181;0.6264342999984365;2482
182;0.6294964999997319;2482
183;0.6327491999982158;2482
184;0.6357736999998451;2482
185;0.6387805999984266;2482
186;0.6417505999997957;2482
187;0.644784999998592;2482
188;0.6477903999984846;2481
189;0.6506118999986938;2482
190;0.6536199999991368;2481
191;0.6566323999995802;2481
192;0.6596355999990919;2482
193;0.6624670999990485;2481
194;0.6655878999990819;2482
195;0.6685891999986779;2482
196;0.6715823999984423;2482
197;0.6745878999990964;2482
198;0.6776431999987835;2482
199;0.680596099999093;2481
200;0.6837741999988793;2482
201;0.6867397999994864;2482
202;0.6897056999987399;2482
203;0.6925230999986525;2482
204;0.6945592999982182;2482
205;0.6977732999985164;2482
206;0.7006700999991153;2481
207;0.7036277999995946;2481
208;0.7067221999986941;2482
209;0.7095319000000018;2482
210;0.7126840999990236;2482
211;0.7155576999994082;2482
212;0.7185749999989639;2482
213;0.7215813999991951;2482
214;0.7244602999999188;2482
215;0.7277334999998857;2482
216;0.73055899999963;2482
217;0.7337212999991607;2482
218;0.7367301999984193;2482
219;0.7396550999983447;2482
220;0.7425033999988955;2482
221;0.7444717999987915;2482
222;0.7464579999996204;2482
223;0.7484634999982518;2482
224;0.7514847999991616;2482
225;0.7550134999983129;2481
226;0.758978499998193;2481
227;0.7619837999991432;2481
228;0.7659959999982675;2481
229;0.7700021999989985;2481
230;0.7730532999994466;2481
231;0.7768070999991323;2481
232;0.7799339999983204;2481
233;0.7839806999982102;2481
234;0.7876047999998264;2481
235;0.7910198999998101;2481
236;0.7935683999985486;2481
237;0.7969922999982373;2481
238;0.7997742999996262;2481
239;0.8025694999996631;2481
240;0.8056982999987667;2481
241;0.8086507999996684;2481
242;0.8117203999991034;2481
243;0.8147376999986591;2481
244;0.817914599998403;2482
245;0.8210188999983075;2481
246;0.823948899998868;2481
247;0.8267311999989033;2482
248;0.8300257999999303;2482
249;0.8337750999999116;2481
250;0.8370008999991114;2481
251;0.8409781999998813;2481
252;0.8449769999988348;2481
253;0.8479516999996122;2481
254;0.8518051999999443;2481
255;0.8549731999992218;2481
256;0.8588523999987956;2481
257;0.8619845999983227;2481
258;0.8649622999982967;2481
259;0.8680227999993804;2481
260;0.8709966999995231;2481
261;0.8740218999992067;2481
262;0.8768020999996224;2481
263;0.8799010999991879;2481
264;0.8828899000000092;2481
265;0.8857018999988213;2481
266;0.8887218999989273;2481
267;0.8917505999997957;2481
268;0.8948954999996204;2481
269;0.8986253999992186;2481
270;0.901963699998305;2481
271;0.9049787999992986;2481
272;0.9077966999993805;2481
273;0.9119412999989436;2482
274;0.9148599999989528;2483
275;0.9178136999998969;2482
276;0.9208652999986953;2482
277;0.923870699998588;2483
278;0.9267968999993172;2483
279;0.9297754999988683;2483
280;0.9336802999987412;2482
281;0.9369901999998547;2482
282;0.9406045999985508;2482
283;0.9435328999988997;2482
284;0.9470184999991034;2482
285;0.9499962999998388;2482
286;0.9529857999987144;2482
287;0.9559949999984383;2482
288;0.9585182999999233;2482
289;0.9620285999990301;2482
290;0.9660204999981943;2482
291;0.9700029999985418;2482
292;0.9738008999993326;2482
293;0.9766699999981938;2482
294;0.9798641999987012;2481
295;0.9828134999988833;2481
296;0.985886099999334;2481
297;0.9887567999994644;2481
298;0.9918645999987348;2481
299;0.9948511999991752;2481
300;0.9979986999987887;2480
301;1.0020154999983788;2480
302;1.0060129999983474;2480
303;1.0087571999993088;2481
304;1.0117792999990343;2481
305;1.0147399999987101;2481
306;1.0176342999984627;2481
307;1.0210441999988689;2481
308;1.0238185999987763;2481
309;1.02659279999898;2481
310;1.029773499998555;2481
311;1.032757599999968;2481
312;1.0357457999998587;2480
313;1.0387569999984407;2480
314;1.0417530999984592;2480
315;1.0447512999999162;2481
316;1.047684199998912;2481
317;1.0506901999997353;2481
318;1.0536595999983547;2481
319;1.0577542999999423;2481
320;1.06057459999829;2481
321;1.0636466999985714;2481
322;1.0664806999993743;2481
323;1.0696996999995463;2481
324;1.0737189999999828;2481
325;1.0766562999997404;2481
326;1.080674299999373;2481
327;1.0835841999996774;2481
328;1.0866762999994535;2481
329;1.0906720999992103;2481
330;1.0947168999991845;2482
331;1.0976522999990266;2481
332;1.100956899999801;2482
333;1.10382749999917;2481
334;1.1067958999992697;2482
335;1.1096459999989747;2482
336;1.1128245999989304;2481
337;1.116753999998764;2481
338;1.1197372999995423;2481
339;1.1227386999998998;2481
340;1.1256235999990167;2481
341;1.128620099998443;2480
342;1.13212139999996;2481
343;1.135767499999929;2481
344;1.1397311999990052;2480
345;1.1430913999993209;2481
346;1.1466331999999966;2480
347;1.1499220999994577;2480
348;1.152946799998972;2480
349;1.1570003999986511;2481
350;1.1606176999994204;2480
351;1.163955399999395;2480
352;1.1678711999993538;2480
353;1.170952299999044;2481
354;1.173947599998428;2481
355;1.176346199999898;2481
356;1.1800033999988955;2481
357;1.184017199999289;2481
358;1.188004899999214;2481
359;1.191977999998926;2482
360;1.1950128999997105;2481
361;1.1990153999995528;2481
362;1.2025941999982024;2481
363;1.2060045999987778;2481
364;1.2085632999987865;2481
365;1.2120208999986062;2481
366;1.2150127999993856;2481
367;1.218731699998898;2481
368;1.2216817999997147;2481
369;1.2256683999985398;2482
370;1.2287332999985665;2481
371;1.2316843999997218;2481
372;1.2349275999986276;2481
373;1.2379245999982231;2481
374;1.2408194999989064;2481
375;1.2435488999999507;2481
376;1.2467559999986406;2481
377;1.2494431999984954;2481
378;1.2524505999990652;2481
379;1.2557643000000098;2481
380;1.2589490999998816;2481
381;1.2617361999982677;2481
382;1.2649954999997135;2481
383;1.2679509999998118;2481
384;1.2705672999982198;2482
385;1.2736187999998947;2481
386;1.2764225999999326;2482
387;1.2795624999998836;2482
388;1.2825096999986272;2482
389;1.2845043999986956;2482
390;1.2866237999987788;2482
391;1.2895370999995066;2482
392;1.2925828999996156;2482
393;1.2956751999990956;2482
394;1.2988320999993448;2482
395;1.3014421999996557;2482
396;1.3046987999987323;2483
397;1.3077741999986756;2482
398;1.310647299998891;2482
399;1.3135445999996591;2483
400;1.3166089999995165;2483
401;1.3197411999990436;2483
402;1.3227725999986433;2483
403;1.3259526999991067;2483
404;1.3291846999982226;2483
405;1.3326227999987168;2483
406;1.3357460999995965;2483
407;1.3387109999985114;2483
408;1.3417129999997996;2483
409;1.3447325999986788;2483
410;1.3476571999999578;2483
411;1.3509981999995944;2482
412;1.3540281999994477;2482
413;1.3579690999995364;2482
414;1.3605730999988737;2482
415;1.3637667999992118;2482
416;1.3666663999993034;2482
417;1.3697884999983216;2482
418;1.372810999999274;2482
419;1.376083999999537;2482
420;1.3791463999987172;2482
421;1.383012399999643;2482
422;1.3869579999991402;2482
423;1.3908978999988904;2482
424;1.3949254999988625;2482
425;1.3979154999997263;2482
426;1.4010134999989532;2482
427;1.4040073999985907;2482
428;1.4070034999986092;2482
429;1.4100081999986287;2482
430;1.412989699998434;2482
431;1.4159879999988334;2482
432;1.4185063999993872;2481
433;1.4220403999988775;2482
434;1.4259911999997712;2482
435;1.4290715999995882;2482
436;1.433036099999299;2482
437;1.4370169999983773;2482
438;1.4406313999988924;2482
439;1.4434970999991492;2481
440;1.4466218999987177;2481
441;1.4498652999991464;2481
442;1.45282639999823;2481
443;1.4558129999986704;2481
444;1.4586503999998968;2481
445;1.4616634999983944;2481
446;1.4646658999990905;2482
447;1.4676623999985168;2481
448;1.4707536999994772;2481
449;1.473647599999822;2482
450;1.4764405999994779;2482
451;1.4796908999996958;2482
452;1.4829248999994888;2481
453;1.4858343999985664;2481
454;1.4887698999991699;2481
455;1.4918831999984832;2482
456;1.4949067999987165;2481
457;1.4978752999995777;2482
458;1.5008870999990904;2482
459;1.5034898999983852;2482
460;1.5064971999981935;2482
461;1.5084688999995706;2482
462;1.5116997999994055;2482
463;1.5144661999984237;2482
464;1.517647399999987;2482
465;1.5206530999985262;2482
466;1.5235411999983626;2481
467;1.5267561999989994;2481
468;1.529585299998871;2481
469;1.5326866999985214;2481
470;1.5356830999990052;2481
471;1.53894659999969;2481
472;1.5419074999990698;2481
473;1.5448614999986603;2481
474;1.5478808999996545;2481
475;1.5505923999990046;2481
476;1.5538812999984657;2481
477;1.5569163999989541;2481
478;1.5599113999996916;2481
479;1.5629914999990433;2481
480;1.5659173999993072;2481
481;1.5688675999990664;2481
482;1.5719014999995125;2481
483;1.5749375999985205;2481
484;1.57774309999877;2481
485;1.580721899999844;2481
486;1.5836407999995572;2481
487;1.586653499998647;2481
488;1.5896641999988788;2481
489;1.5925888999991002;2481
490;1.5956725999985792;2481
491;1.5987832999999227;2481
492;1.601804699999775;2481
493;1.6047978999995394;2481
494;1.6075320999989344;2481
495;1.6104464999989432;2481
496;1.6134262999985367;2481
497;1.6168049999996583;2481
498;1.6197608999991644;2480
499;1.6227873999996518;2481
500;1.625714899999366;2480
501;1.6283846999995149;2480
502;1.6317301999988558;2480
503;1.6346432999998797;2481
504;1.6377578999999969;2481
505;1.6405877999986842;2480
506;1.6434443999987707;2480
507;1.6465555999984645;2480
508;1.6495575999997527;2480
509;1.6513546999995015;2480
510;1.6534004999994067;2480
511;1.6554111999994348;2480
512;1.6585692999997264;2480
513;1.662721299999248;2480
514;1.6660994999983814;2480
515;1.6700897999999142;2480
516;1.6741830999999365;2481
517;1.6765084999988176;2480
518;1.6796963999986474;2480
519;1.6826810999991721;2481
520;1.6856810999997833;2481
521;1.6885554999989836;2481
522;1.6915620999989187;2481
523;1.694822599998588;2481
524;1.6977400999985548;2481
525;1.7010209999989456;2481
526;1.7038047999994888;2481
527;1.7068315999986226;2481
528;1.7096421999995073;2481
529;1.712709099998392;2481
530;1.7157258999995975;2481
531;1.7187115999986418;2481
532;1.7217566999988776;2481
533;1.7247102999990602;2481
534;1.7277377999998862;2481
535;1.730703799999901;2481
536;1.733708799998567;2481
537;1.7368166999985988;2481
538;1.7397407999997085;2481
539;1.7428026999987196;2481
540;1.7456058999996458;2481
541;1.748621099999582;2481
542;1.751543299998957;2481
543;1.7548982999996952;2481
544;1.758909299998777;2481
545;1.7621558999999252;2481
546;1.7660656999996718;2480
547;1.7705599999990227;2480
548;1.7740384999997332;2480
549;1.7780605999996624;2480
550;1.7816193999988172;2480
551;1.784651899999517;2481
552;1.787658499999452;2481
553;1.7906586999997671;2481
554;1.7935980999991443;2481
555;1.7967458999992232;2481
556;1.7994428999991214;2481
557;1.8028471999987232;2481
558;1.8060204999983398;2481
559;1.8088612999999896;2481
560;1.8118151999988186;2481
561;1.8147595999998885;2481
562;1.8176770999998553;2480
563;1.8211030999991635;2480
564;1.8241475999984686;2481
565;1.8280226999995648;2481
566;1.8316484999995737;2481
567;1.8350216999988334;2481
568;1.8389846999998554;2481
569;1.8430540999997902;2481
570;1.8470030999997107;2481
571;1.8500282999993942;2482
572;1.8540216999990662;2481
573;1.8568239999985963;2481
574;1.8597159999990254;2481
575;1.8625850999997056;2481
576;1.86568939999961;2481
577;1.8686830999995436;2481
578;1.8716734999998152;2481
579;1.8747477999986586;2481
580;1.8777313999999024;2481
581;1.8807924999982788;2481
582;1.8837983999983408;2481
583;1.886790699998528;2481
584;1.8897777999991376;2481
585;1.8927951999994548;2481
586;1.8956558999998379;2481
587;1.8987647999983892;2481
588;1.9017894999997225;2481
589;1.9047753999984707;2481
590;1.9077759999981936;2481
591;1.9108133999998245;2481
592;1.913841699999466;2481
593;1.9167942999993102;2480
594;1.919778999999835;2480
595;1.9226397999991605;2480
596;1.9258008999986487;2480
597;1.928838199999518;2480
598;1.931733699999313;2480
599;1.934745099999418;2480
600;1.9377298999988852;2480
601;1.9405264999986684;2480
602;1.943513999998686;2480
603;1.9465528999990056;2480
604;1.9496222999987367;2480
605;1.9525690999998915;2480
606;1.9555761999999959;2480
607;1.9589277999984915;2480
608;1.9619153999992704;2480
609;1.9649915999998484;2480
610;1.9687059999996563;2479
611;1.9726746999986062;2479
612;1.9756667999990896;2479
613;1.9786886999991111;2479
614;1.9820434999983263;2479
615;1.986012599998503;2479
616;1.9896147999988898;2479
617;1.9930791999995563;2479
618;1.996007899999313;2479
619;1.999668999998903;2479
620;2.0026961999992636;2479
621;2.006022599998687;2479
622;2.0096601999994164;2478
623;2.013694699999178;2479
624;2.0169938999988517;2478
625;2.0208437999990565;2477
626;2.024694099998669;2477
627;2.0277324999988195;2477
628;2.030897599999662;2477
629;2.033781199999794;2477
630;2.037948499999402;2477
631;2.04194809999899;2477
632;2.044923799998287;2477
633;2.048893199998929;2477
634;2.051938799999334;2477
635;2.054845499998919;2477
636;2.05778459999965;2477
637;2.060522599998876;2477
638;2.063631199998781;2477
639;2.0666326999999;2477
640;2.069636799998989;2477
641;2.072600899999088;2477
642;2.075598399998853;2477
643;2.0785893999982363;2477
644;2.0818198999986635;2477
645;2.08482659999936;2477
646;2.0878512999988743;2477
647;2.0907877999998163;2477
648;2.0935395999986213;2477
649;2.0966103999999177;2477
650;2.099534399998447;2477
651;2.1014688999985083;2477
652;2.1034903999989183;2477
653;2.1057053999993514;2477
654;2.108695999999327;2477
655;2.1116755999992165;2476
656;2.1146818999986863;2476
657;2.117599199998949;2476
658;2.1206899999997404;2475
659;2.123659699998825;2475
660;2.12653009999849;2475
661;2.1299791999990703;2475
662;2.134039099999427;2475
663;2.137945899999977;2475
664;2.1420434999999998;2474
665;2.1449913999986165;2474
666;2.1488525999993726;2474
667;2.1517949999997654;2474
668;2.155854899998303;2473
669;2.1595199999992474;2473
670;2.1630129999994097;2473
671;2.1660415999995166;2473
672;2.168826599998283;2472
673;2.171844599999531;2472
674;2.1748584999986633;2472
675;2.1778066999995644;2472
676;2.1807294999998703;2472
677;2.1837288999995508;2471
678;2.1870114999983343;2471
679;2.1898660999995627;2471
680;2.1926823999983753;2471
681;2.1956245999990642;2471
682;2.19880479999847;2471
683;2.202853499999037;2471
684;2.206820899999002;2470
685;2.209562599999117;2470
686;2.212858899998537;2469
687;2.2169145999996545;2470
688;2.2198730999989493;2469
689;2.2228666999999405;2469
690;2.2257321999986743;2469
691;2.228744599999118;2468
692;2.231798999999228;2468
693;2.2348006999982317;2468
694;2.237831599999481;2468
695;2.2407412999982625;2468
696;2.2434016999995947;2468
697;2.245825399999376;2467
698;2.2485392999988107;2468
699;2.251843899999585;2468
700;2.254538799999864;2467
701;2.25785679999899;2467
702;2.2606833999998344;2467
703;2.263547099999414;2466
704;2.2666692999991938;2466
705;2.27095829999962;2466
706;2.274024099999224;2466
707;2.277913499998249;2465
708;2.2810806999987108;2465
709;2.284080499999618;2465
710;2.2868387999988045;2465
711;2.2898305999988224;2465
712;2.2929779999994935;2465
713;2.295519299999796;2465
714;2.29851299999973;2465
715;2.3007922999986476;2464
716;2.303805599998668;2464
717;2.3076489999984915;2464
718;2.3121459999983927;2463
