;time;amplitude
0;0.0031578999987686984;2448
1;0.005990899999233079;2447
2;0.009476699999140692;2447
3;0.012162199998783763;2447
4;0.01498859999992419;2446
5;0.018120699998689815;2446
6;0.021042799999122508;2445
7;0.024017599998842343;2444
8;0.027034799999455572;2443
9;0.030114199998934055;2443
10;0.03307849999873724;2442
11;0.036027499998454005;2442
12;0.03906279999864637;2441
13;0.04195789999903354;2440
14;0.04485299999942072;2440
15;0.04805619999933697;2439
16;0.05094419999841193;2439
17;0.053851499998927466;2438
18;0.05708109999977751;2437
19;0.05986249999841675;2437
20;0.06305949999841687;2436
21;0.06615939999937837;2436
22;0.06898929999988468;2435
23;0.0719011999990471;2435
24;0.0751455999998143;2435
25;0.07787239999925077;2434
26;0.07981349999863596;2434
27;0.08303629999863915;2433
28;0.0861784999997326;2433
29;0.08912379999856057;2432
30;0.09182849999888276;2431
31;0.09502719999909459;2431
32;0.09807519999958458;2431
33;0.10110029999850667;2430
34;0.104056700000001;2429
35;0.10691699999915727;2429
36;0.11002209999969637;2429
37;0.1129912999986118;2428
38;0.11607939999885275;2428
39;0.11883390000002692;2428
40;0.12186739999924612;2427
41;0.12499709999974584;2426
42;0.12798819999989064;2425
43;0.13073199999962526;2425
44;0.13392989999920246;2424
45;0.1369169999998121;2424
46;0.1398812999996153;2423
47;0.1443392999990465;2422
48;0.14844599999923958;2421
49;0.1519972999994934;2420
50;0.15496079999866197;2419
51;0.15818549999858078;2418
52;0.1624138999995921;2418
53;0.16654169999856094;2417
54;0.16992479999862553;2416
55;0.17361609999898064;2415
56;0.17731759999878705;2415
57;0.18124989999887475;2414
58;0.1840646000000561;2413
59;0.18710459999965678;2413
60;0.19004609999865352;2412
61;0.192957799999931;2412
62;0.19595699999990757;2411
63;0.1989676999983203;2411
64;0.2021649999987858;2410
65;0.20473319999837258;2410
66;0.20794529999875522;2410
67;0.21089179999944463;2409
68;0.21404419999998936;2409
69;0.21688149999863526;2408
70;0.220434099999693;2409
71;0.22350079999887384;2408
72;0.22735839999950258;2408
73;0.23090079999929003;2407
74;0.23404329999902984;2406
75;0.23694660000001022;2406
76;0.24002870000003895;2405
77;0.24312800000006973;2405
78;0.2460146999983408;2405
79;0.24890099999902304;2404
80;0.25198769999951764;2403
81;0.2550288999991608;2403
82;0.25835639999968407;2401
83;0.26254489999882935;2401
84;0.26524849999987055;2400
85;0.26806049999868264;2400
86;0.27099989999987883;2400
87;0.2740200999996887;2399
88;0.277134500000102;2398
89;0.2800178999987111;2398
90;0.2827997999993386;2397
91;0.28592249999928754;2396
92;0.2891701999997167;2396
93;0.2925268999988475;2396
94;0.2948821999998472;2395
95;0.29850749999968684;2395
96;0.30242729999918083;2395
97;0.3062482999994245;2394
98;0.30899909999970987;2394
99;0.31210579999969923;2394
100;0.31499929999881715;2393
101;0.3181401999991067;2393
102;0.3209888999990653;2393
103;0.3240198999992572;2393
104;0.32703359999868553;2392
105;0.3302075999999943;2392
106;0.3330814000000828;2392
107;0.33597869999903196;2392
108;0.33897309999883873;2392
109;0.3419492999983049;2392
110;0.3466594999990775;2392
111;0.35034839999934775;2391
112;0.3549327999990055;2391
113;0.3593961999995372;2391
114;0.3638610999987577;2390
115;0.36898719999953755;2390
116;0.37342309999985446;2390
117;0.37795269999878656;2390
118;0.38126609999926586;2389
119;0.3856687999996211;2389
120;0.38910289999876113;2389
121;0.3926097999992635;2389
122;0.39632219999839435;2389
123;0.40027999999983876;2389
124;0.4041979999983596;2389
125;0.4072684999991907;2389
126;0.4102622999998857;2389
127;0.4132692999992287;2389
128;0.4162707999985287;2389
129;0.4190119999984745;2389
130;0.42195189999983995;2389
131;0.4252710999990086;2389
132;0.42926729999999225;2389
133;0.43227049999950395;2389
134;0.4360856999992393;2389
135;0.43925149999995483;2389
136;0.44327569999950356;2389
137;0.44726619999892137;2389
138;0.4501907999983814;2389
139;0.45403970000006666;2389
140;0.45702519999940705;2389
141;0.45989969999936875;2388
142;0.4629390999998577;2389
143;0.46590329999889946;2389
144;0.46936209999876155;2389
145;0.4736498999991454;2390
146;0.4772611999997025;2390
147;0.48088429999916116;2390
148;0.48401909999847703;2391
149;0.4870928999989701;2391
150;0.4898585999999341;2391
151;0.49295969999911904;2391
152;0.4959605999993073;2391
153;0.5003034999990632;2391
154;0.5044509999988804;2392
155;0.5085463999985222;2392
156;0.512768499998856;2393
157;0.5165813999992679;2393
158;0.5204101999988779;2394
159;0.5240290999990975;2394
160;0.5269326999987243;2395
161;0.5298960999989504;2395
162;0.5328786999998556;2395
163;0.5359104999988631;2396
164;0.5388853999993444;2396
165;0.5418405000000348;2396
166;0.5436948999995366;2396
167;0.5456534999993892;2396
168;0.5476251999989472;2397
169;0.5496213999995234;2397
170;0.5516095999992103;2397
171;0.5536396999996214;2397
172;0.5556653999992704;2397
173;0.5576473999990412;2397
174;0.5596427999989828;2397
175;0.5617157999986375;2397
176;0.5636875000000146;2398
177;0.5658045999989554;2398
178;0.5678369999986899;2399
179;0.5713456999983464;2399
180;0.5748749999984284;2399
181;0.5783398999992642;2399
182;0.582556299999851;2400
183;0.5848267000001215;2400
184;0.5868216999988363;2401
185;0.58928079999896;2401
186;0.5918249999995169;2401
187;0.5952440000000934;2401
188;0.5983851999990293;2402
189;0.6024141999987478;2402
190;0.6060488999992231;2403
191;0.6089928999990661;2404
192;0.612029199999597;2404
193;0.6150110999988101;2405
194;0.6182297999985167;2405
195;0.620984999999564;2406
196;0.6240407999994204;2406
197;0.6270414999999048;2407
198;0.6300554999997985;2408
199;0.6328842999992048;2408
200;0.6349494999994931;2408
201;0.6379185999994661;2408
202;0.6397552999987965;2409
203;0.6418949999988399;2409
204;0.6449413999998796;2410
205;0.6479540999989695;2410
206;0.6525424999999814;2411
207;0.6561842999999499;2412
208;0.6603630999998131;2412
209;0.6642609999998967;2412
210;0.6671290999984194;2413
211;0.6700775999997859;2414
212;0.6730348000000959;2415
213;0.6759432999988348;2415
214;0.6789508999991085;2415
215;0.6819135999994614;2416
216;0.6848859999990964;2416
217;0.6878176999998686;2417
218;0.6908514999995532;2418
219;0.6938145999993139;2418
220;0.6958390999989206;2419
221;0.6978125999994518;2419
222;0.7008726999993087;2419
223;0.7038661999995384;2419
224;0.70573819999845;2421
225;0.7077556999993249;2421
226;0.7097560999991401;2422
227;0.7117905999984941;2422
228;0.714676599998711;2423
229;0.7166792999996687;2423
230;0.7198058999983914;2424
231;0.7218940999991901;2424
232;0.7237038999992365;2425
233;0.7257341999993514;2425
234;0.7278462999984185;2426
235;0.7298210999997536;2426
236;0.7318290999992314;2426
237;0.7348107999987405;2427
238;0.7368650999997044;2427
239;0.7398008999989543;2427
240;0.7418916999995417;2428
241;0.7437190000000555;2428
242;0.746664199999941;2428
243;0.7498625999996875;2429
244;0.7518372999984422;2430
245;0.7537658999990526;2430
246;0.7557914999997593;2431
247;0.7576604999994743;2431
248;0.7596077999987756;2431
249;0.7616022999991401;2432
250;0.7636179999990418;2432
251;0.7656616999993275;2432
252;0.7677122999994026;2432
253;0.7697595999998157;2432
254;0.77180959999896;2433
255;0.7748379999993631;2433
256;0.7768281999997271;2434
257;0.7797560999988491;2434
258;0.7817779999986669;2435
259;0.7837621999988187;2435
260;0.7857262999987142;2435
261;0.7877076999993733;2435
262;0.7897854999991978;2436
263;0.791712499998539;2436
264;0.7936856999986048;2437
265;0.7956869999998162;2437
266;0.797813799999858;2437
267;0.7997863999989931;2438
268;0.8017959999997402;2439
269;0.8037421999997605;2439
270;0.8057185999987269;2439
271;0.8076980999994703;2440
272;0.8097272999984853;2440
273;0.8117408999987674;2441
274;0.8137205999992148;2441
275;0.8157382999997935;2441
276;0.817718899999818;2442
277;0.8196571999997104;2442
278;0.8216727999988507;2443
279;0.8237309999985882;2443
280;0.8256983999999647;2443
281;0.8287028999984614;2443
282;0.8307124999992084;2444
283;0.8326329999999871;2444
284;0.8347448999993503;2445
285;0.8367134000000078;2445
286;0.8387132999996538;2446
287;0.8407103999998071;2446
288;0.8426891999988584;2447
289;0.8446970999993937;2447
290;0.8466548999986117;2448
291;0.8486779999984719;2448
292;0.8506760000000213;2448
293;0.8526944999994157;2448
294;0.8547240999996575;2449
295;0.8567431999999826;2449
296;0.8587408999992476;2449
297;0.8607479999991483;2450
298;0.8626873999983218;2450
299;0.8646988999989844;2450
300;0.8667552999995678;2450
301;0.8687251999999717;2451
302;0.8707091999986005;2451
303;0.8727674999990995;2451
304;0.8747573000000557;2451
305;0.8767893999993248;2451
306;0.8797925999988365;2452
307;0.8817844999994122;2452
308;0.8837509999993927;2453
309;0.8857466999997996;2453
310;0.8877185999990616;2454
311;0.8897512999992614;2454
312;0.8917743999991217;2454
313;0.893763799998851;2454
314;0.8957608000000619;2455
315;0.8977923999991617;2455
316;0.8997542999986763;2456
317;0.9017696999999316;2456
318;0.9038574999995035;2456
319;0.9067607999986649;2456
320;0.9088701999990008;2457
321;0.9118609999986802;2457
322;0.9138599999987491;2457
323;0.9168239999999059;2457
324;0.9188113999989582;2457
325;0.9207452999999077;2458
326;0.9228438999998616;2458
327;0.9248469999984081;2458
328;0.9268187999987276;2459
329;0.9288436999995611;2459
330;0.9307364999986021;2460
331;0.9328400999984297;2460
332;0.9348550999984582;2460
333;0.9368328999989899;2460
334;0.9388208000000304;2460
335;0.9408565999983693;2461
336;0.9428410999989865;2461
337;0.944825699998546;2461
338;0.9468179999985296;2462
339;0.9487616999995225;2462
340;0.9508149999983289;2463
341;0.9528632999990805;2463
342;0.9547946999991836;2463
343;0.9568276999998488;2463
344;0.9587572000000364;2463
345;0.9607529999993858;2463
346;0.9627375000000029;2463
347;0.9647604999991017;2463
348;0.9668451999987155;2464
349;0.968818099998316;2464
350;0.9718404999985069;2464
351;0.9738225999990391;2464
352;0.9758480000000418;2464
353;0.9778231999989657;2464
354;0.9808214999993652;2464
355;0.9828330000000278;2464
356;0.9848838999987493;2464
357;0.9866816999983712;2464
358;0.9887435000000551;2465
359;0.9906639000000723;2465
360;0.9926621999984491;2465
361;0.9947290000000066;2465
362;0.9966819999990548;2466
363;0.9986411999998381;2466
364;1.0008376999994653;2466
365;1.0037917999998172;2466
366;1.0057805999986158;2466
367;1.0077914999983477;2466
368;1.0106813999991573;2467
369;1.0127372999995714;2467
370;1.0147420999983296;2467
371;1.01670219999869;2467
372;1.0186874999999418;2466
373;1.0207846999983303;2467
374;1.0228071999990789;2467
375;1.0258063999990554;2466
376;1.0278098999988288;2467
377;1.0298183999984758;2467
378;1.0318545999998605;2467
379;1.0338551999993797;2467
380;1.0358579999992799;2467
381;1.0388774999992165;2467
382;1.0408515999988595;2467
383;1.0428345000000263;2467
384;1.0448348999998416;2467
385;1.0478876999986824;2467
386;1.0508697999994183;2468
387;1.0528591999991477;2468
388;1.0548908000000665;2468
389;1.0578629999999976;2468
390;1.060885099999723;2468
391;1.0628621999985626;2468
392;1.0648449000000255;2467
393;1.0678815999999642;2467
394;1.0698888999995688;2466
395;1.071888399999807;2466
396;1.0748387999992701;2466
397;1.076924599999984;2466
398;1.0789067999994586;2466
399;1.0819530999997369;2466
400;1.0848712999995769;2466
401;1.087839999998323;2466
402;1.0898612999990291;2466
403;1.0926159999999072;2465
404;1.0946330999995553;2465
405;1.0967972999987978;2465
406;1.0987838999990345;2465
407;1.1006643999990047;2465
408;1.1028145000000222;2465
409;1.1047009999983857;2465
410;1.1066131999996287;2464
411;1.108612499998344;2464
412;1.1106523999987985;2464
413;1.112695399999211;2464
414;1.1146668999990652;2464
415;1.1166685999996844;2464
416;1.1186585999985255;2464
417;1.120681999998851;2463
418;1.122687600000063;2463
419;1.1247550999996747;2463
420;1.1268304999994143;2462
421;1.1286986999984947;2462
422;1.1306582999986858;2462
423;1.1326719999997295;2462
424;1.1346286999996664;2462
425;1.1366593999991892;2462
426;1.1386743999992177;2462
427;1.1407832999993843;2461
428;1.1426338999990548;2461
429;1.1447073999988788;2461
430;1.146692799999073;2461
431;1.148653700000068;2461
432;1.150663299998996;2461
433;1.152733499999158;2461
434;1.1547148999998171;2461
435;1.1568454999996902;2460
436;1.1597844999996596;2460
437;1.1617471999998088;2460
438;1.163748699998905;2460
439;1.1657001999992644;2459
440;1.167694699999629;2459
441;1.1696783999996114;2459
442;1.1716903999986243;2459
443;1.1736839999994118;2459
444;1.17574280000008;2459
445;1.1776933000001009;2458
446;1.17975689999912;2458
447;1.1817408999995678;2458
448;1.183765299998413;2458
449;1.1868116999994527;2458
450;1.1888549999985116;2458
451;1.1906698999991931;2458
452;1.1935966000000917;2458
453;1.1956958999999188;2458
454;1.1978246999988187;2458
455;1.1996257999999216;2457
456;1.2016298999988066;2457
457;1.203701299999011;2457
458;1.205762199999299;2456
459;1.2077180999986012;2456
460;1.2097611999997753;2456
461;1.211700199999541;2456
462;1.213750599999912;2455
463;1.2157460999987961;2455
464;1.2176798999989842;2455
465;1.219663899999432;2455
466;1.2217930999995588;2454
467;1.2247530999993614;2454
468;1.2268539999986388;2453
469;1.22971779999898;2453
470;1.2316999999984546;2452
471;1.2337165999997524;2452
472;1.2357045999997354;2452
473;1.2377370999984123;2452
474;1.2397689999997965;2451
475;1.2418023999998695;2451
476;1.2437391999992542;2451
477;1.2457356999984768;2450
478;1.2478007999998226;2450
479;1.2518416999992041;2449
480;1.2537512999988394;2449
481;1.2557415999999648;2448
482;1.2577689999998256;2448
483;1.2596672999989096;2447
484;1.2617383999986487;2447
485;1.2644740999985515;2446
486;1.266768099998444;2446
487;1.2697579999985464;2445
488;1.2718218999998498;2445
489;1.2737308999985544;2445
490;1.2756187999984832;2444
491;1.2777052999990701;2444
492;1.2796344999987923;2444
493;1.281781099998625;2443
494;1.283750799999325;2443
495;1.2857587999988027;2442
496;1.2876946999986103;2442
497;1.2896523999988858;2441
498;1.2916251999995438;2441
499;1.2936081999996532;2441
500;1.2956199000000197;2440
501;1.297690399998828;2440
502;1.2997172999985196;2439
503;1.3016465999990032;2439
504;1.3036529000000883;2439
505;1.3056235999993078;2438
506;1.3076249999994616;2438
507;1.3096124999992753;2437
508;1.3116122999999789;2437
509;1.3137000999995507;2436
510;1.3156726999986859;2436
511;1.3177039999991393;2436
512;1.3197704999984126;2435
513;1.3217059999988123;2435
514;1.3237245000000257;2434
515;1.3257221999992908;2434
516;1.32771639999919;2433
517;1.3296773999991274;2433
518;1.3316300999995292;2433
519;1.3337582999993174;2432
520;1.3362280000001192;2432
521;1.3426955999984784;2431
522;1.3465880999992805;2430
523;1.3487434999988182;2430
524;1.3523385999997117;2429
525;1.3548304999985703;2428
526;1.3567634999999427;2428
527;1.3590154999983497;2427
528;1.360811399999875;2427
529;1.3627165999987483;2427
530;1.364767799999754;2427
531;1.366699799998969;2426
532;1.368682099999205;2426
533;1.3709683999986737;2426
534;1.3739394999993237;2425
535;1.376872099999673;2424
536;1.3787951999984216;2424
537;1.3807937999990827;2424
538;1.3828132999988156;2423
539;1.3847470999990037;2423
540;1.3867598999986512;2422
541;1.388701999998375;2422
542;1.390818500000023;2421
543;1.3938167999986035;2421
544;1.3964500999991287;2421
545;1.3987364999993588;2420
546;1.4008249999988038;2420
547;1.4026395000000775;2419
548;1.4047654999994847;2419
549;1.411679599999843;2419
550;1.4302621999995608;2415
551;1.4745046999996703;2410
552;1.4807674999992742;2406
553;1.4827418999993824;2405
554;1.4847102999992785;2405
555;1.4866913999994722;2405
556;1.4897769999988668;2404
557;1.491846999999325;2403
558;1.4937709999994695;2403
559;1.4956628999989334;2403
560;1.4977162999985012;2402
561;1.4998221999994712;2402
562;1.5016965999984677;2402
563;1.504282099998818;2401
564;1.5192546999987826;2399
565;1.5267217000000528;2398
566;1.5311896999992314;2396
567;1.551124899999195;2394
568;1.5557660999984364;2393
569;1.5593950999991648;2393
570;1.5617680999985168;2393
571;1.5641264999994746;2393
572;1.5678392999998323;2393
573;1.569850599998972;2393
574;1.5727999999999156;2393
575;1.5747550999985833;2393
576;1.5777206999991904;2393
577;1.5796972999996797;2392
578;1.582761699999537;2392
579;1.5846781000000192;2391
580;1.5867386999998416;2391
581;1.5897742999986804;2391
582;1.5927495999985695;2390
583;1.5946891999992658;2390
584;1.5967392999991716;2390
585;1.5986499999999069;2390
586;1.600740699999733;2390
587;1.6044849999998405;2389
588;1.60676599999897;2389
589;1.6098273999996309;2389
590;1.611704799999643;2389
591;1.613703600000008;2389
592;1.6156616999996913;2389
593;1.6176368999986153;2389
594;1.6197214999992866;2389
595;1.6221338999985164;2388
596;1.6246751999988192;2388
597;1.626615999999558;2388
598;1.6286320999988675;2388
599;1.6320355999996536;2388
600;1.6348128999998153;2387
601;1.6366657999988092;2387
602;1.6398518999994849;2387
603;1.64170219999869;2387
604;1.643698999998378;2387
605;1.6456631000000925;2386
606;1.6476051999998163;2386
607;1.649603299998489;2386
608;1.651602099998854;2387
609;1.6536965999985114;2386
610;1.6557821999995213;2387
611;1.6576090999988082;2387
612;1.6596565999989252;2387
613;1.6616381999992882;2387
614;1.6636513999983435;2387
615;1.665860999999495;2387
616;1.6687712999992073;2387
617;1.6707919000000402;2387
618;1.6737224999997125;2387
619;1.6757067999988067;2388
620;1.6777746999996452;2388
621;1.6797393999986525;2388
622;1.6817139999984647;2388
623;1.683713099999295;2387
624;1.685705699999744;2388
625;1.6888255999983812;2388
626;1.691737799999828;2387
627;1.693675099999382;2387
628;1.6956214999991062;2387
629;1.6976190999994287;2387
630;1.6996681000000535;2387
631;1.7016870999996172;2387
632;1.7039396000000124;2388
633;1.706915899998421;2388
634;1.70874189999995;2388
635;1.7108137999985047;2388
636;1.7126510999987659;2388
637;1.71467549999943;2388
638;1.7168034999995143;2389
639;1.718680799998765;2389
640;1.7207411999988835;2389
641;1.7227044999999634;2389
642;1.7247918999983085;2389
643;1.7278319999986707;2389
644;1.7298264000000927;2389
645;1.7316673999994237;2389
646;1.7336605999989843;2389
647;1.7356713999997737;2389
648;1.7377217999983259;2390
649;1.7397649999984424;2390
650;1.74264409999887;2390
651;1.74475639999946;2390
652;1.7467204999993555;2390
653;1.7487372999985382;2390
654;1.750743299999158;2390
655;1.752711699999054;2390
656;1.7557828999997582;2391
657;1.757726099998763;2391
658;1.759594899998774;2391
659;1.7616463999984262;2391
660;1.763603699999294;2391
661;1.7656306999997469;2392
662;1.7675964999998541;2392
663;1.7696426999991672;2392
664;1.7716676999989431;2392
665;1.773638699998628;2393
666;1.7756792999989557;2393
667;1.7776343999994424;2393
668;1.7796203999987483;2393
669;1.7816110999992816;2393
670;1.7836398999988887;2393
671;1.7856447999984084;2394
672;1.7877840000001015;2394
673;1.7907180999991397;2394
674;1.7928413999998156;2394
675;1.7948120999990351;2394
676;1.796827399999529;2395
677;1.7988374999986263;2395
678;1.8007748999989417;2395
679;1.8028581999988091;2395
680;1.8057222999996156;2395
681;1.8091796999997314;2396
682;1.8118844000000536;2397
683;1.8148335999994742;2397
684;1.8167955999997503;2398
685;1.8187361000000237;2398
686;1.8208168000001024;2399
687;1.8227305999989767;2399
688;1.824772899999516;2399
689;1.8267508999997517;2400
690;1.8287464999993972;2400
691;1.8307549999990442;2401
692;1.8327773000000889;2401
693;1.8347231999996438;2401
694;1.8366965999994136;2402
695;1.8416671999984828;2402
696;1.8437713999992411;2403
697;1.8456999999998516;2403
698;1.8476707999998325;2403
699;1.8498868999995466;2404
700;1.8527712999984942;2404
701;1.854914399998961;2405
702;1.8578705999989324;2405
703;1.8605750999995507;2405
704;1.8627761999996437;2405
705;1.8647281999983534;2406
706;1.8667369999984658;2406
707;1.8687118999987433;2406
708;1.870736199998646;2407
709;1.8747384999987844;2408
710;1.8767698999999993;2408
711;1.8787255999995978;2409
712;1.8807667999990372;2408
713;1.8827217999987624;2409
714;1.8847364999983256;2409
715;1.8866777999992337;2409
716;1.8887675999994826;2409
