;time;amplitude
0;0.003288599998995778;2496
1;0.006229499998880783;2496
2;0.009222699998645112;2496
3;0.011998899999525747;2496
4;0.015235799999572919;2495
5;0.01809809999940626;2495
6;0.02110319999883359;2494
7;0.0242551999999705;2494
8;0.027234399998633307;2493
9;0.030696499999976368;2493
10;0.033557299999301904;2493
11;0.036167999998724554;2492
12;0.03939619999982824;2492
13;0.042180200000075274;2491
14;0.045320299999730196;2490
15;0.04858579999927315;2490
16;0.0516845000001922;2490
17;0.05546919999869715;2490
18;0.058542699998724856;2489
19;0.06243039999935718;2489
20;0.06554890000006708;2488
21;0.0685020999990229;2488
22;0.07138779999877443;2487
23;0.07436189999862108;2487
24;0.07729589999871678;2487
25;0.08037039999908302;2486
26;0.08337079999910202;2485
27;0.08644279999862192;2485
28;0.08935349999956088;2485
29;0.09217499999977008;2484
30;0.09538359999896784;2484
31;0.09852719999980764;2484
32;0.10138430000006338;2484
33;0.10417989999950805;2483
34;0.10737039999912668;2483
35;0.11036499999863736;2483
36;0.11338379999870085;2483
37;0.11635849999947823;2483
38;0.11949180000010529;2484
39;0.12237689999892609;2483
40;0.1253216999994038;2483
41;0.12839119999989634;2483
42;0.13121059999866702;2483
43;0.13429659999928845;2482
44;0.13738899999952991;2482
45;0.14050959999985935;2482
46;0.14316989999861107;2481
47;0.14616879999994126;2481
48;0.1493386999991344;2480
49;0.1522023999987141;2480
50;0.1553619999995135;2480
51;0.1584444000000076;2479
52;0.16137699999853794;2478
53;0.16438139999991108;2477
54;0.1673888999994233;2477
55;0.1703094999993482;2476
56;0.17332419999911508;2476
57;0.1760936999999103;2475
58;0.17911819999972067;2474
59;0.18210799999906158;2474
60;0.18535030000020924;2473
61;0.18834739999874728;2472
62;0.19131349999952363;2471
63;0.1942959999996674;2470
64;0.19778739999856043;2470
65;0.2018330999999307;2469
66;0.20565829999941343;2468
67;0.20810199999868928;2467
68;0.2100849999987986;2466
69;0.21208779999869876;2466
70;0.2141092000001663;2465
71;0.21649090000028082;2465
72;0.22023909999916214;2464
73;0.22353759999896283;2464
74;0.22643149999930756;2464
75;0.23055149999891;2464
76;0.23372339999878022;2464
77;0.23735109999870474;2463
78;0.24071299999923212;2462
79;0.24462039999889384;2462
80;0.24709679999978107;2461
81;0.25036869999894407;2461
82;0.2533568999988347;2460
83;0.2561086999994586;2460
84;0.2582384999986971;2459
85;0.2610759999988659;2458
86;0.26419199999872944;2458
87;0.2674184999996214;2457
88;0.2706414999993285;2456
89;0.27478319999863743;2455
90;0.27764879999995173;2455
91;0.2818085999988398;2454
92;0.28451099999983853;2453
93;0.28715399999964575;2452
94;0.29075249999914377;2451
95;0.2949122999998508;2450
96;0.29827389999991283;2448
97;0.30163639999955194;2447
98;0.3046718999994482;2446
99;0.3088532999991003;2445
100;0.31163939999896684;2444
101;0.3158605999997235;2444
102;0.3186152999987826;2443
103;0.3224821999992855;2442
104;0.3252173999990191;2441
105;0.32858200000009674;2441
106;0.33112879999862344;2440
107;0.33329849999972794;2439
108;0.3360837000000174;2438
109;0.33820879999984754;2437
110;0.3416520999999193;2436
111;0.34470519999922544;2436
112;0.3486546999993152;2434
113;0.35111759999927017;2434
114;0.35428219999994326;2433
115;0.3574202999989211;2432
116;0.3602833999993891;2431
117;0.3630704999995942;2431
118;0.3650320999986434;2430
119;0.3671067999985098;2429
120;0.3690980999999738;2429
121;0.3711660999997548;2428
122;0.3740234999986569;2428
123;0.37602869999864197;2427
124;0.3780394999994314;2427
125;0.38030259999868576;2426
126;0.38319659999979194;2425
127;0.38628719999906025;2424
128;0.38973259999875154;2423
129;0.3933015000002342;2422
130;0.3966049999999086;2421
131;0.39970829999947455;2420
132;0.403778500000044;2420
133;0.40740439999899536;2419
134;0.4105400999997073;2418
135;0.41355359999943175;2417
136;0.41651509999974223;2416
137;0.41931709999880695;2415
138;0.42232530000001134;2415
139;0.4251245999985258;2414
140;0.4283040999998775;2413
141;0.4313719999991008;2413
142;0.43432020000000193;2412
143;0.43734129999938887;2411
144;0.4404395999990811;2411
145;0.44333849999929953;2410
146;0.44647509999958856;2409
147;0.44934469999861903;2408
148;0.45220489999883284;2407
149;0.4553312999996706;2407
150;0.45843539999987115;2406
151;0.4613608999989083;2405
152;0.4643447999987984;2404
153;0.4674645999984932;2403
154;0.4703174999995099;2402
155;0.47309150000000955;2401
156;0.47629129999950237;2401
157;0.4791267999989941;2400
158;0.4821830000000773;2399
159;0.4853071999987151;2398
160;0.4883353999994142;2398
161;0.49115939999865077;2398
162;0.4948162999990018;2397
163;0.4987884000001941;2396
164;0.5027669999999489;2395
165;0.5055701000001136;2394
166;0.5088488000001234;2393
167;0.5116535999986809;2393
168;0.5146010999997088;2392
169;0.5173249999988911;2392
170;0.5202762999997503;2392
171;0.5233391000001575;2391
172;0.5261312000002363;2390
173;0.5294887999989442;2390
174;0.5324965999989217;2389
175;0.5352950999986206;2389
176;0.5384970999984944;2388
177;0.541496099998767;2387
178;0.5444766999989952;2386
179;0.5474143999999797;2386
180;0.5504492000000027;2385
181;0.5534376999985398;2385
182;0.5564415999997436;2384
183;0.559088599999086;2383
184;0.5624314999986382;2382
185;0.5654350999993767;2381
186;0.5693178999990778;2381
187;0.5724374000001262;2381
188;0.5752537999997003;2380
189;0.5784387999992759;2379
190;0.5814402999985759;2379
191;0.5844347999991442;2378
192;0.5874410999986139;2377
193;0.5904645999999047;2377
194;0.5934406999986095;2376
195;0.5964395999999397;2376
196;0.5994525999994949;2375
197;0.6024511999985407;2375
198;0.6054349999994884;2374
199;0.6084374999991269;2374
200;0.6114394999985961;2373
201;0.6143396999996185;2373
202;0.6174257999991823;2373
203;0.6204404000000068;2373
204;0.6234351999992214;2373
205;0.6264457999986917;2373
206;0.6292425999999978;2373
207;0.6324408999989828;2372
208;0.6353879999987839;2373
209;0.638421699999526;2372
210;0.6414373999996315;2371
211;0.6444163999985904;2371
212;0.6473205999991478;2371
213;0.6501441000000341;2370
214;0.6521004999995057;2370
215;0.6541104999996605;2370
216;0.6560787999987951;2370
217;0.6580988999994588;2370
218;0.6602769999990414;2370
219;0.6631368999987899;2370
220;0.6663236999993387;2369
221;0.6693545999987691;2369
222;0.6724259999991773;2369
223;0.6752289999985805;2369
224;0.6793526999990718;2369
225;0.6822971000001417;2369
226;0.6854261999997107;2369
227;0.6882974000000104;2369
228;0.6914344999986497;2368
229;0.6941522999986773;2368
230;0.6972330999997212;2367
231;0.7001760000002832;2367
232;0.703333699999348;2367
233;0.7062984999993205;2367
234;0.7091201999992336;2367
235;0.7123493999988568;2367
236;0.7153190999997605;2367
237;0.7181786999990436;2367
238;0.721472499999436;2368
239;0.7255353000000468;2368
240;0.7286621000002924;2368
241;0.7327079999995476;2368
242;0.7362248999997973;2369
243;0.7394710999997187;2369
244;0.7421916999992391;2369
245;0.7454490999989503;2369
246;0.7486369999987801;2369
247;0.7527217999995628;2369
248;0.7567005999990215;2369
249;0.7605299999995623;2369
250;0.7634808999991947;2369
251;0.7664937999998074;2370
252;0.7705778999988979;2370
253;0.7735425999999279;2370
254;0.7764637000000221;2371
255;0.7796351999986655;2372
256;0.7825574999988021;2372
257;0.7856026999997994;2373
258;0.7881249999991269;2373
259;0.7901129000001674;2373
260;0.7920524000001024;2373
261;0.7940937000003032;2373
262;0.7964968999986013;2373
263;0.7997055999985605;2373
264;0.8032137999998668;2374
265;0.806376900000032;2374
266;0.8092233999996097;2375
267;0.8122985999998491;2375
268;0.8154395000001387;2375
269;0.8182880999993358;2375
270;0.8214733999993769;2376
271;0.8243418000001839;2376
272;0.8274621000000479;2377
273;0.8303102999998373;2377
274;0.8332040999994206;2378
275;0.8362602999986848;2379
276;0.8390749999998661;2379
277;0.8411749999995664;2380
278;0.8441187999997055;2380
279;0.8461452999999892;2380
280;0.8481372999995074;2381
281;0.8510347999999794;2381
282;0.8530531999986124;2381
283;0.8549488999997266;2381
284;0.8569123999986914;2381
285;0.8592099999987113;2381
286;0.860929299999043;2382
287;0.8629311999993661;2382
288;0.8649316999999428;2383
289;0.8669270999998844;2383
290;0.8689481000001251;2383
291;0.871072699999786;2384
292;0.8729549999989104;2384
293;0.8749176000001171;2385
294;0.8769851999986713;2385
295;0.8790924999993877;2385
296;0.8809977000000799;2385
297;0.8829723999988346;2385
298;0.8849654999994527;2386
299;0.8869718999994802;2386
300;0.8890187999986665;2386
301;0.8909358999990218;2386
302;0.893031499999779;2387
303;0.8950007999992522;2387
304;0.8969328000002861;2387
305;0.8989320999990014;2388
306;0.900985899999796;2388
307;0.9030235999998695;2389
308;0.9049316999989969;2389
309;0.9069576999991114;2389
310;0.9090631999988545;2389
311;0.9109757999995054;2390
312;0.9130102999988594;2390
313;0.9151166999999987;2390
314;0.91710299999977;2390
315;0.9191743999999744;2391
316;0.9221423999988474;2391
317;0.925107899998693;2392
318;0.9279495999999199;2392
319;0.930018499999278;2393
320;0.9319865999987087;2393
321;0.9338850999993156;2394
322;0.9359104999984993;2394
323;0.937954199998785;2395
324;0.9398750000000291;2395
325;0.9419639999996434;2396
326;0.944000599998617;2396
327;0.945947399999568;2397
328;0.947981899998922;2397
329;0.9500107999992906;2398
330;0.9518926000000647;2398
331;0.9538910999999644;2399
332;0.9558909999996104;2400
333;0.9578762000001007;2400
334;0.9599831999985327;2401
335;0.9619547000002058;2402
336;0.963872000000265;2402
337;0.9659394999998767;2403
338;0.9679199000001972;2403
339;0.9699658999998064;2404
340;0.9719225999997434;2404
341;0.97399249999944;2405
342;0.9761288999998214;2405
343;0.9791633999993792;2405
344;0.9811602999998286;2406
345;0.9841691000001447;2407
346;0.9872157999998308;2407
347;0.9899937999998656;2408
348;0.9920012999991741;2409
349;0.9941023999999743;2410
350;0.9971054999987246;2411
351;0.9990226999998413;2412
352;1.0009174999995594;2412
353;1.0029262999996718;2413
354;1.0048971999985952;2413
355;1.0069165999993857;2414
356;1.0090165999990859;2414
357;1.0115035999988322;2415
358;1.0140179999998509;2416
359;1.01596040000004;2416
360;1.0181235000000015;2417
361;1.0200972000002366;2417
362;1.0220687000000908;2418
363;1.025026199999047;2418
364;1.0270634999997128;2419
365;1.028976599998714;2419
366;1.0309116999997059;2420
367;1.0329141999991407;2420
368;1.0350005000000237;2421
369;1.0369792000001326;2422
370;1.0389531000000716;2422
371;1.0409523999987869;2422
372;1.0429860999993252;2423
373;1.0449895999990986;2424
374;1.0469815999986167;2424
375;1.049097899998742;2424
376;1.052130500000203;2425
377;1.055136400000265;2426
378;1.0571303999986412;2427
379;1.0591007999992144;2428
380;1.061097099998733;2428
381;1.063089699999182;2428
382;1.0651072999989992;2428
383;1.0671113999997033;2429
384;1.0690973999990092;2429
385;1.071123499999885;2430
386;1.0731970999986515;2430
387;1.0750098999997135;2431
388;1.0770201999985147;2431
389;1.0791319999989355;2432
390;1.0811318999985815;2432
391;1.0831335999992007;2433
392;1.0850862999996025;2433
393;1.087163000000146;2434
394;1.0901477999996132;2435
395;1.0931960999987496;2436
396;1.0960469999990892;2436
397;1.0980045999986032;2437
398;1.1000739999999496;2438
399;1.1020692000001873;2438
400;1.104080299999623;2438
401;1.1060710999990988;2439
402;1.1080602999991243;2440
403;1.1101011999999173;2440
404;1.1130705999985366;2441
405;1.1150901000000886;2442
406;1.1181187000001955;2443
407;1.1200989999997546;2443
408;1.1231317000001582;2444
409;1.1252695999992284;2444
410;1.1280544999990525;2445
411;1.129920499999571;2446
412;1.1318983000001026;2446
413;1.1339171999989048;2446
414;1.135964299999614;2447
415;1.1379624999990483;2448
416;1.1399636999994982;2448
417;1.1423044999992271;2449
418;1.1451562000002014;2450
419;1.1481876999987435;2450
420;1.1511258999998972;2451
421;1.154132199999367;2452
422;1.1571802999987995;2452
423;1.159143299999414;2453
424;1.1615213999994012;2453
425;1.1641331999999238;2453
426;1.1661199999998644;2454
427;1.1680894999990414;2455
428;1.1700574999995297;2456
429;1.1720562999998947;2456
430;1.1741544999986218;2457
431;1.1761270999995759;2458
432;1.1781023999992613;2458
433;1.1811307999996643;2458
434;1.1831604999988485;2459
435;1.1851050999994186;2460
436;1.1883474999995087;2460
437;1.191316899999947;2461
438;1.1941267000001972;2461
439;1.196179900000061;2462
440;1.1981098999985988;2463
441;1.2000408999992942;2463
442;1.2034640000001673;2464
443;1.2064562999985355;2465
444;1.2090981999990618;2466
445;1.2122566999987612;2466
446;1.2149910999996791;2467
447;1.2170845000000554;2468
448;1.2190918999986025;2468
449;1.2210909999994328;2469
450;1.2230932999991637;2469
451;1.2251633999985643;2470
452;1.228366499999538;2470
453;1.2314107000001968;2471
454;1.234243199998673;2471
455;1.2373123999987001;2472
456;1.240314299999227;2472
457;1.2431204999993497;2473
458;1.2463382999994792;2473
459;1.249484299998585;2474
460;1.2523525999986305;2474
461;1.2553179999995336;2475
462;1.258351299999049;2475
463;1.261318899998514;2476
464;1.2644487999987177;2477
465;1.2673193999999057;2477
466;1.2701125999992655;2477
467;1.2731632999984868;2478
468;1.2763313999985257;2478
469;1.2793843999988894;2479
470;1.2823107999993226;2479
471;1.2854408000002877;2479
472;1.2882319999989704;2480
473;1.2910260999997263;2480
474;1.29338800000005;2480
475;1.2962587999991229;2481
476;1.2981041000002733;2481
477;1.3012832999993407;2481
478;1.304175999999643;2482
479;1.3072905999997602;2482
480;1.3103284999997413;2483
481;1.3134534000000713;2483
482;1.3163112999991426;2484
483;1.3194595999993908;2484
484;1.3223206000002392;2484
485;1.3251500999995187;2484
486;1.328328399999009;2485
487;1.3314570000002277;2485
488;1.3343370999991748;2486
489;1.3381047999992006;2486
490;1.3403963000000658;2486
491;1.3432193999997253;2486
492;1.3462541999997484;2487
493;1.3492700999995577;2487
494;1.3521838999986358;2487
495;1.35419069999989;2488
496;1.3561805999997887;2488
497;1.3582863999999972;2488
498;1.3612144999988232;2489
499;1.3631702000002406;2489
500;1.366165399998863;2489
501;1.3681755999987217;2489
502;1.3712332999984937;2489
503;1.3732435000001715;2489
504;1.376249499999176;2489
505;1.3781615999996575;2489
506;1.3801262999986648;2490
507;1.383114399999613;2490
508;1.385233099999823;2490
509;1.3882534999993368;2490
510;1.3912497000001167;2490
511;1.394504899999447;2490
512;1.3973635000002105;2490
513;1.4005042999997386;2490
514;1.4033708999995724;2491
515;1.4063174999992043;2490
516;1.4094241000002512;2490
517;1.4122874999993655;2491
518;1.415308699999514;2491
519;1.4183352000000014;2491
520;1.4214732000000367;2491
521;1.4243458000000828;2491
522;1.4272205999986909;2491
523;1.4301666999999725;2491
524;1.4335460999991483;2491
525;1.4363854000002902;2491
526;1.439322299998821;2491
527;1.4421748999993724;2491
528;1.4453443999991578;2491
529;1.4482004000001325;2490
530;1.4513489000000845;2490
531;1.4541503000000375;2490
532;1.4571457999991253;2490
533;1.4603572999985772;2490
534;1.4631977999997616;2489
535;1.4663230999994994;2489
536;1.4698706999988644;2489
537;1.473785099999077;2489
538;1.4761655000002065;2489
539;1.4796480999993946;2489
540;1.483135599999514;2488
541;1.4866208999992523;2488
542;1.490743399999701;2487
543;1.4931483999989723;2487
544;1.4963372000001982;2487
545;1.4995780999997805;2486
546;1.5021973999992042;2486
547;1.5055409999986296;2485
548;1.5086904999989201;2484
549;1.5113089999995282;2484
550;1.5143043999996735;2484
551;1.5174437999994552;2485
552;1.5203585999988718;2485
553;1.523438799998985;2484
554;1.5263452999988658;2484
555;1.5291606999999203;2483
556;1.532147799998711;2482
557;1.5353322999999364;2482
558;1.5381268999990425;2481
559;1.5412672000002203;2481
560;1.54444119999971;2480
561;1.547309599998698;2480
562;1.5503107999993517;2480
563;1.5533168000001751;2479
564;1.5561590999986947;2479
565;1.5591485999993893;2478
566;1.5623180999991746;2478
567;1.565357399998902;2477
568;1.5683343000000605;2476
569;1.5710263999990275;2475
570;1.5733201999992161;2475
571;1.5765303999996831;2475
572;1.579414199999519;2474
573;1.5823048999991443;2474
574;1.5854443999996874;2473
575;1.5883114999996906;2472
576;1.5913653999996313;2471
577;1.5943171999988408;2471
578;1.5973113999989437;2470
579;1.6002076999993733;2471
580;1.6033410000000003;2470
581;1.6064353999991;2469
582;1.6093194999994012;2468
583;1.6124664999988454;2467
584;1.615340299998934;2467
585;1.618179199998849;2466
586;1.6213478999998188;2465
587;1.6245226999999431;2465
588;1.6273516999990534;2464
589;1.6303393999987748;2464
590;1.6334580999991886;2463
591;1.636320199999318;2463
592;1.6394799999998213;2462
593;1.6421797000002698;2462
594;1.6450871999986703;2461
595;1.648378899999443;2460
596;1.6513606999997137;2459
597;1.6544381999992765;2459
598;1.6573094999985187;2458
599;1.660467099998641;2457
600;1.66334629999983;2457
601;1.6661637999986851;2456
602;1.6693427999998676;2455
603;1.672066299999642;2455
604;1.675161899998784;2454
605;1.6783209999994142;2454
606;1.6810937999998714;2453
607;1.6833314999985305;2452
608;1.68612419999954;2451
609;1.6893294000001333;2450
610;1.6921048999993218;2450
611;1.6952995999999985;2449
612;1.698338000000149;2448
613;1.7014703999993799;2448
614;1.7043347999988328;2447
615;1.707472999998572;2446
616;1.7103379000000132;2446
617;1.7130577999996603;2445
618;1.7162662999999156;2445
619;1.7193607999997766;2444
620;1.7225025999996433;2443
621;1.725135999999111;2443
622;1.728083099998912;2442
623;1.7313309999990452;2442
624;1.7344600999986142;2441
625;1.737331299998914;2440
626;1.7403125000000728;2439
627;1.743377299999338;2439
628;1.74633779999931;2438
629;1.7494427000001451;2437
630;1.752308199998879;2436
631;1.7554615999997623;2436
632;1.7582896999992954;2435
633;1.7611691999991308;2435
634;1.7643467999987479;2434
635;1.767338199999358;2433
636;1.7703741999994236;2432
637;1.773349799999778;2431
638;1.776130499998544;2430
639;1.7792931999993016;2429
640;1.7824650000002293;2428
641;1.785343899999134;2427
642;1.7881901000000653;2427
643;1.7911169999988488;2426
644;1.7943543000001227;2425
645;1.7974617999989277;2424
646;1.8003423999998631;2423
647;1.8034596999987116;2422
648;1.8063098000002356;2421
649;1.8091313999993872;2420
650;1.8110877999988588;2419
651;1.81309279999914;2419
652;1.8164050999985193;2418
653;1.81926459999886;2418
654;1.8221806999990804;2417
655;1.8251748000002408;2417
656;1.8283436999990954;2416
657;1.8314603999988321;2415
658;1.8343401000001904;2414
659;1.8374680999986595;2414
660;1.8403412999996362;2414
661;1.8434739999993326;2413
662;1.8463370999998006;2412
663;1.8494167999997444;2411
664;1.8523981999987882;2411
665;1.8553350000001956;2410
666;1.85827049999898;2409
667;1.8613341999989643;2408
668;1.8644657999993797;2408
669;1.867337799998495;2407
670;1.8704763999994611;2407
671;1.8733452999986184;2406
672;1.876517699998658;2405
673;1.8793736999996327;2404
674;1.8823367999993934;2404
675;1.8850947999999335;2403
676;1.888349199998629;2402
677;1.8914401999991242;2401
678;1.8943459000001894;2401
679;1.8974665999994613;2400
680;1.900443799999266;2399
681;1.9034709999996267;2398
682;1.9064719999987574;2397
683;1.9093252000002394;2396
684;1.9124656999993022;2395
685;1.9154608999997436;2394
686;1.9184869000000617;2393
687;1.9214603999989777;2393
688;1.9244570999999269;2392
689;1.9274602999994386;2391
690;1.930466300000262;2390
691;1.9334414999993896;2390
692;1.9364618999989034;2389
693;1.9394591999989643;2388
694;1.9421549999988201;2387
695;1.9454620999986219;2387
696;1.948109699998895;2386
697;1.9500449999995908;2386
698;1.9533190000001923;2385
699;1.956328799999028;2385
700;1.9594073999996908;2384
701;1.962344599998687;2384
702;1.9653260999984923;2383
703;1.9683277999993152;2382
704;1.971315599999798;2382
705;1.9743259999995644;2381
706;1.977338200000304;2380
707;1.9806161999986216;2380
708;1.9848824000000604;2380
709;1.9888501999994332;2379
710;1.9922226999988197;2379
711;1.9955594000002748;2378
712;1.9998352000002342;2378
713;2.0037168999988353;2378
714;2.007768399998895;2377
715;2.0107382999995025;2377
716;2.0137417999994796;2376
