;time;amplitude
0;0.004250799998771981;2413
1;0.008778699999311357;2414
2;0.013602199998786091;2415
3;0.018822699999873294;2415
4;0.02320029999827966;2416
5;0.02621729999918898;2416
6;0.029037399999651825;2417
7;0.03205899999920803;2417
8;0.03504599999905622;2418
9;0.03802499999983411;2419
10;0.04090399999950023;2419
11;0.043917299999520765;2420
12;0.04700830000001588;2420
13;0.05134399999951711;2421
14;0.055194399999891175;2422
15;0.059834699999555596;2423
16;0.06482199999845761;2424
17;0.06970639999963169;2425
18;0.07341679999990447;2426
19;0.07794279999870923;2427
20;0.08179999999993015;2428
21;0.0855530999997427;2428
22;0.08968179999828862;2429
23;0.09371229999851494;2430
24;0.09772879999945872;2431
25;0.101175299998431;2433
26;0.10411690000000817;2433
27;0.10713179999947897;2434
28;0.11006909999923664;2434
29;0.11314599999968777;2435
30;0.11604079999960959;2435
31;0.1190563000000111;2436
32;0.12206019999939599;2436
33;0.124941599999147;2436
34;0.1280412999985856;2437
35;0.13203449999855366;2437
36;0.1352002999992692;2438
37;0.13788839999870106;2439
38;0.14103569999861065;2439
39;0.1438862999984849;2441
40;0.1468479999984993;2442
41;0.15141339999900083;2442
42;0.15533859999959532;2443
43;0.15989779999836173;2444
44;0.16431099999863363;2445
45;0.16835899999932735;2445
46;0.17216189999999187;2446
47;0.17670389999875624;2446
48;0.1805497999994259;2447
49;0.184583999998722;2448
50;0.18791019999844139;2449
51;0.19119599999976344;2450
52;0.19399219999831985;2450
53;0.19818779999877734;2451
54;0.2011849999998958;2452
55;0.20398219999879075;2452
56;0.20717530000001716;2452
57;0.211175499998717;2453
58;0.21418619999894872;2453
59;0.21719949999896926;2453
60;0.2201575999988563;2454
61;0.22320189999845752;2454
62;0.22595899999942048;2455
63;0.22904769999877317;2456
64;0.23204859999896144;2456
65;0.2351829999988695;2457
66;0.23797169999852485;2457
67;0.2408287999987806;2458
68;0.24419739999939338;2458
69;0.24817289999919012;2459
70;0.2521768999995402;2459
71;0.25519189999977243;2460
72;0.2581999999983964;2460
73;0.2621741999992082;2461
74;0.2661887999984174;2461
75;0.2691728999998304;2462
76;0.2720577999989473;2463
77;0.2761817999999039;2463
78;0.27920109999831766;2464
79;0.2832040999983292;2464
80;0.2861987999986013;2465
81;0.28919479999967734;2465
82;0.2920682999993005;2465
83;0.29618249999839463;2466
84;0.2992002999999386;2466
85;0.30319369999961054;2466
86;0.30619759999899543;2466
87;0.30919119999998657;2466
88;0.3132027999999991;2467
89;0.3161735999983648;2467
90;0.3191867999994429;2467
91;0.32218959999954677;2468
92;0.32521899999846937;2468
93;0.3282056999996712;2468
94;0.33119239999905403;2468
95;0.33508919999985665;2468
96;0.33796389999952225;2468
97;0.3411858999988908;2469
98;0.3442046999989543;2469
99;0.34717779999846243;2469
100;0.35023209999963;2469
101;0.353986399999485;2469
102;0.35817709999901126;2470
103;0.36120609999852604;2470
104;0.364201200000025;2470
105;0.36821449999843026;2470
106;0.37096329999985755;2471
107;0.3741738999997324;2471
108;0.37718929999937245;2471
109;0.3802044999993086;2471
110;0.38399759999992966;2471
111;0.38702179999927466;2470
112;0.39020179999897664;2471
113;0.3932173999983206;2471
114;0.39717039999959525;2470
115;0.3999778999987029;2471
116;0.4029648999985511;2471
117;0.4062205999998696;2470
118;0.4091975999999704;2471
119;0.4122014999993553;2470
120;0.4151903999991191;2470
121;0.41818849999981467;2470
122;0.4209419999988313;2470
123;0.4242064999998547;2470
124;0.4282043999992311;2469
125;0.4319847999995545;2470
126;0.4351892999984557;2470
127;0.43801629999870784;2469
128;0.44103679999898304;2469
129;0.4442165999989811;2468
130;0.447181499999715;2468
131;0.4502020999989327;2468
132;0.45315369999843824;2467
133;0.4561930999989272;2467
134;0.46024749999924097;2467
135;0.46292109999922104;2467
136;0.46618799999851035;2467
137;0.4691793999991205;2467
138;0.47190909999881114;2466
139;0.47498279999854276;2466
140;0.4782923999991908;2466
141;0.4823222999984864;2466
142;0.486339199998838;2465
143;0.4890440999988641;2465
144;0.49224340000000666;2465
145;0.496296599998459;2465
146;0.5003258999986429;2464
147;0.5038940999984334;2463
148;0.5075179999985266;2463
149;0.511538599999767;2463
150;0.5155586999990192;2463
151;0.5195580999989033;2463
152;0.5235236999997142;2462
153;0.5273619999989023;2462
154;0.5314779999989696;2461
155;0.5355563999983133;2461
156;0.5390414999983477;2460
157;0.5425537999999506;2460
158;0.5465667999997095;2459
159;0.5505877999985387;2459
160;0.5539006999988487;2458
161;0.5575629999984812;2457
162;0.5612451999986661;2457
163;0.5655522999986715;2456
164;0.5696517999986099;2456
165;0.5734714999998687;2455
166;0.5775381999992533;2455
167;0.5815473999991809;2454
168;0.585526499999105;2453
169;0.5895418999989488;2452
170;0.593590899999981;2451
171;0.5971186999995552;2450
172;0.6003947999997763;2449
173;0.6041197999984433;2448
174;0.607262499999706;2448
175;0.6115323999983957;2447
176;0.6155317999982799;2447
177;0.6189549999999144;2446
178;0.6219257999982801;2446
179;0.6248645999985456;2445
180;0.628095599999142;2444
181;0.6322346999986621;2444
182;0.6352237999999488;2443
183;0.638145999999324;2443
184;0.6411848999996437;2442
185;0.6440370000000257;2442
186;0.6469190999996499;2441
187;0.6500755999986723;2441
188;0.6529395999987173;2440
189;0.655921199999284;2440
190;0.6590710000000399;2439
191;0.6619603999988612;2439
192;0.6647473999983049;2439
193;0.6679605999997875;2438
194;0.6707584999985556;2438
195;0.6741024999992078;2437
196;0.6769739999999729;2437
197;0.6797063999983948;2436
198;0.6817397999984678;2435
199;0.6848502999982884;2435
200;0.6877427999988868;2434
201;0.6908979999989242;2433
202;0.6936688999994658;2433
203;0.6967200999988563;2432
204;0.6999002999982622;2431
205;0.7030540999985533;2430
206;0.7059916999987763;2429
207;0.7090895999990607;2429
208;0.7119812999990245;2428
209;0.7151442999984283;2427
210;0.7178009999988717;2427
211;0.7208022999984678;2426
212;0.7244256999983918;2425
213;0.7280871999992087;2425
214;0.7313076999998884;2424
215;0.7352102999993804;2423
216;0.7388406999998551;2422
217;0.7419097999991209;2422
218;0.7448221999984526;2421
219;0.7478830999989441;2420
220;0.7510702999989007;2419
221;0.7537936999997328;2419
222;0.7569651999983762;2418
223;0.7597747999989224;2418
224;0.7629224999982398;2418
225;0.76591389999885;2417
226;0.7686808999987988;2416
227;0.7724003999992419;2416
228;0.776454199998625;2415
229;0.780384799998501;2415
230;0.7844780999985232;2414
231;0.7867590999994718;2413
232;0.7903299999998126;2413
233;0.794233599999643;2412
234;0.7978048999993916;2411
235;0.7998274999990826;2410
236;0.8028539999995701;2410
237;0.8058331999982329;2409
238;0.8093116999989434;2408
239;0.8133439999983239;2407
240;0.8169938999999431;2407
241;0.8200508999998419;2406
242;0.8228429999999207;2406
243;0.8247200999994675;2405
244;0.8280436999993981;2405
245;0.8308524999993097;2404
246;0.8336968999992678;2403
247;0.8366790999989462;2403
248;0.8387019999991026;2402
249;0.8428782999999385;2402
250;0.8459193999988202;2401
251;0.8487523999992845;2400
252;0.8517947000000277;2400
253;0.8548152999992453;2399
254;0.8567501999987144;2398
255;0.8587111999986519;2398
256;0.8607414999987668;2398
257;0.863815999999133;2397
258;0.8667965999993612;2397
259;0.868789399999514;2397
260;0.8719716999985394;2396
261;0.8747197999982745;2396
262;0.8777305999992677;2396
263;0.8809676999990188;2396
264;0.8838988999996218;2395
265;0.8866799999996147;2395
266;0.8887513999998191;2395
267;0.8906818999985262;2394
268;0.8937524999982998;2394
269;0.8955891999994492;2393
270;0.8976691999996547;2393
271;0.8996474999985367;2393
272;0.9015549999985524;2393
273;0.9036138999999821;2392
274;0.9056369999998424;2392
275;0.9076626999994915;2392
276;0.9098679999988235;2391
277;0.9129373999985546;2391
278;0.9159646999996767;2390
279;0.918974199999866;2390
280;0.9222589999990305;2390
281;0.9246324999985518;2390
282;0.926877500000046;2389
283;0.9297595999996702;2389
284;0.9332864999996673;2389
285;0.9361590999997134;2389
286;0.938837899999271;2389
287;0.9418449999993754;2388
288;0.9446865999998408;2388
289;0.9468650999988313;2388
290;0.9496623999984877;2387
291;0.9519455999998172;2387
292;0.9551333999988856;2387
293;0.9576478999988467;2387
294;0.9609161999997013;2387
295;0.9638535999984015;2386
296;0.9669141999984276;2386
297;0.969969999998284;2386
298;0.9728175999989617;2386
299;0.9757592999994813;2385
300;0.9778421999999409;2385
301;0.9808783999997104;2385
302;0.9838664999988396;2385
303;0.9866643999994267;2385
304;0.9888403999993898;2385
305;0.9918106999994052;2384
306;0.9947619999984454;2384
307;0.9966775999982929;2384
308;0.9988434999995661;2384
309;1.0018338999998377;2384
310;1.0050221999990754;2384
311;1.0077268999993976;2384
312;1.009737699998368;2384
313;1.0127989999982674;2383
314;1.0147365999982867;2384
315;1.0179067999997642;2383
316;1.0207383999986632;2383
317;1.02389409999887;2383
318;1.0269242999984272;2383
319;1.0300726999994367;2383
320;1.0328924999994342;2383
321;1.036048199999641;2383
322;1.0387705999983154;2383
323;1.0406790999986697;2383
324;1.0438616999999795;2383
325;1.046865299998899;2384
326;1.0497637999997096;2384
327;1.0528656999995292;2384
328;1.054824999999255;2384
329;1.0580094999986613;2384
330;1.0608720000000176;2384
331;1.0637108999999327;2385
332;1.066756099999111;2385
333;1.0699542999991536;2385
334;1.0727573999993183;2385
335;1.075006699998994;2385
336;1.0778467000000092;2385
337;1.080754299999171;2385
338;1.0837516999999934;2385
339;1.086794099999679;2386
340;1.0890514999991865;2386
341;1.091758699998536;2386
342;1.0947391999998217;2386
343;1.0979175999982544;2386
344;1.1009126999997534;2387
345;1.103018499999962;2387
346;1.1057012999990548;2387
347;1.107771099999809;2387
348;1.10970929999894;2388
349;1.1116709999987506;2388
350;1.1136543999982678;2388
351;1.1157533999994484;2388
352;1.1177804999988439;2388
353;1.1198644999985845;2389
354;1.1222879999986617;2389
355;1.1248361999987537;2389
356;1.1280116999987513;2389
357;1.130982299999232;2390
358;1.1340312999982416;2390
359;1.1366432999984681;2390
360;1.1390367999993032;2390
361;1.1420032999994874;2391
362;1.1449177999984386;2391
363;1.148149899998316;2391
364;1.1509725999985676;2391
365;1.1536686999988888;2391
366;1.155759899998884;2391
367;1.1586850999992748;2392
368;1.1609792999988713;2392
369;1.1637450999987777;2393
370;1.1657826999999088;2393
371;1.1693962999997893;2394
372;1.1718997999996645;2394
373;1.1748539000000164;2394
374;1.1777572999999393;2395
375;1.1797270999995817;2395
376;1.182741899998291;2396
377;1.1860165999987657;2396
378;1.1888732999996137;2396
379;1.1916755999991437;2396
380;1.193701999998666;2396
381;1.1957177999993291;2397
382;1.1976467999993474;2397
383;1.199703899999804;2398
384;1.2018262999990839;2398
385;1.203771999998935;2398
386;1.2058368999987579;2398
387;1.2078664999989996;2399
388;1.2108257999989291;2399
389;1.2140199999994365;2400
390;1.2174491999994643;2401
391;1.2208372999994026;2401
392;1.2227108999995835;2402
393;1.2259096999987378;2402
394;1.2290713999991567;2403
395;1.2320433999993838;2403
396;1.234808899998825;2404
397;1.2378045999994356;2404
398;1.240944599998329;2404
399;1.243758099999468;2405
400;1.2470776999998634;2405
401;1.2499107999992702;2406
402;1.2530247999984567;2406
403;1.2559129999990546;2407
404;1.258835699998599;2407
405;1.2619577999994362;2408
406;1.2649568999986514;2408
407;1.2678793999984919;2409
408;1.2706923999994615;2409
409;1.2729857999984233;2410
410;1.2758662999985972;2410
411;1.2778685999983281;2410
412;1.2806773999982397;2411
413;1.283866499999931;2411
414;1.2867051999983232;2411
415;1.2887977999998839;2412
416;1.291649699998743;2412
417;1.2938539999995555;2413
418;1.2972162999994907;2414
419;1.3002881999982492;2414
420;1.3033423999986553;2416
421;1.3057012999997823;2416
422;1.3091611999989254;2417
423;1.3122717999995075;2418
424;1.3150128999986919;2418
425;1.3182934999986173;2419
426;1.3207206999995833;2419
427;1.3241265999986354;2420
428;1.3270863999987341;2420
429;1.330154199999015;2421
430;1.3328747999985353;2422
431;1.3358795999993163;2422
432;1.339094599999953;2423
433;1.3420536999983597;2424
434;1.345059699999183;2425
435;1.348090499999671;2425
436;1.35092209999857;2427
437;1.3537588999988657;2428
438;1.357065700000021;2428
439;1.3600708999983908;2429
440;1.3630617999988317;2429
441;1.3660685999984707;2430
442;1.3690075999984401;2431
443;1.3720746999988478;2431
444;1.3750664999988658;2431
445;1.3780637999989267;2432
446;1.3810669999984384;2432
447;1.3840652999988379;2433
448;1.3867445999985648;2433
449;1.3900856000000203;2434
450;1.393031699999483;2434
451;1.3960658999985753;2435
452;1.3990661999996519;2436
453;1.4016455999990285;2437
454;1.403746999998475;2437
455;1.4060704999992595;2438
456;1.409033999998428;2438
457;1.4120488999997178;2439
458;1.4150498999988486;2440
459;1.4180569000000105;2440
460;1.4209364999987883;2440
461;1.424068599999373;2441
462;1.4270702999983769;2441
463;1.43005969999831;2442
464;1.4327624999987165;2442
465;1.4360753999990266;2443
466;1.4391034999989643;2443
467;1.442073199999868;2444
468;1.445066099999167;2445
469;1.4478693999990355;2445
470;1.4510518999995838;2447
471;1.453778399998555;2447
472;1.4570735999986937;2448
473;1.4599243999982718;2449
474;1.463011199999528;2449
475;1.466042699999889;2449
476;1.4690567999987252;2449
477;1.472082499998578;2450
478;1.4750551999986783;2450
479;1.4780438999987382;2451
480;1.4810734999991837;2452
481;1.4840513999988616;2452
482;1.4868166999985988;2452
483;1.4899760999996943;2453
484;1.4929351999999199;2454
485;1.496067399999447;2454
486;1.4990465999999287;2455
487;1.50205939999978;2455
488;1.5048396999991382;2456
489;1.5080846999990172;2456
490;1.5108417999999801;2457
491;1.513915099998485;2457
492;1.51693399999931;2458
493;1.5199724999984028;2458
494;1.5228592999992543;2458
495;1.526057099999889;2459
496;1.5290507999998226;2460
497;1.53204839999853;2460
498;1.5350467999996908;2460
499;1.5379242999988492;2461
500;1.5411140999985946;2461
501;1.5440446999982669;2462
502;1.546998199999507;2462
503;1.5500411999983044;2463
504;1.5528792999994039;2463
505;1.555972499998461;2464
506;1.5589474999997037;2465
507;1.561898799998744;2465
508;1.5648008999996819;2465
509;1.567819199999576;2466
510;1.5708820999989257;2466
511;1.5743021999987832;2466
512;1.5783615999989706;2467
513;1.5822863999983383;2467
514;1.5851296999990154;2467
515;1.5892966999999771;2468
516;1.5923076999988552;2468
517;1.5952316999992036;2469
518;1.5982931999988068;2469
519;1.602288199999748;2469
520;1.6063618999996834;2469
521;1.610291299999517;2470
522;1.6143284999998286;2470
523;1.6172126999990724;2471
524;1.6201794999997219;2471
525;1.6232165999990684;2472
526;1.626324899998508;2472
527;1.6292100999999093;2472
528;1.6321642999992036;2472
529;1.636343999998644;2471
530;1.639296999999715;2471
531;1.6432548999982828;2471
532;1.6473813999982667;2471
533;1.650931499998478;2471
534;1.6538642999985314;2471
535;1.6572735999998258;2472
536;1.6603218000000197;2472
537;1.6643279999989318;2472
538;1.6671094999983325;2472
539;1.6701021999997465;2472
540;1.674395399999412;2472
541;1.6783001999992848;2472
542;1.6807014999994863;2471
543;1.6841421999997692;2471
544;1.6878528999986884;2471
545;1.6912486999990506;2471
546;1.693913999999495;2470
547;1.6971755999984453;2470
548;1.6999278999992384;2470
549;1.7030274999997346;2470
550;1.7062491999986378;2470
551;1.7092503999992914;2470
552;1.7121276999987458;2470
553;1.7148349999988568;2471
554;1.71783079999841;2471
555;1.7196073999984947;2471
556;1.7217070999995485;2471
557;1.7238405999996758;2471
558;1.726579899999706;2471
559;1.7291201999996701;2471
560;1.733222899998509;2470
561;1.7364219999999477;2469
562;1.7403958999984752;2469
563;1.743343799998911;2468
564;1.7472815999990416;2468
565;1.7500110999990284;2468
566;1.7529572999992524;2468
567;1.7561445999999705;2468
568;1.7592027999999118;2468
569;1.7629463999983273;2467
570;1.7659053999996104;2467
571;1.7687351999993552;2467
572;1.7707158999983221;2467
573;1.7727314999992814;2466
574;1.7746974999990925;2466
575;1.7778955999983737;2466
576;1.7810502999982418;2465
577;1.783945599998333;2464
578;1.7867913999998564;2464
579;1.7903249999999389;2463
580;1.7930253999984416;2463
581;1.7958796999992046;2462
582;1.7989064999983384;2462
583;1.8017566999988048;2461
584;1.8037531999998464;2461
585;1.8059481999989657;2461
586;1.8087967999999819;2461
587;1.8117301999991469;2461
588;1.8138844999994035;2460
589;1.815722299999834;2460
590;1.8188957999991544;2460
591;1.8219776999994792;2460
592;1.8250851999982842;2460
593;1.8278921999990416;2459
594;1.8310564999992494;2459
595;1.8339376999992965;2458
596;1.8367983999996795;2457
597;1.8387813999997888;2457
598;1.8419641999989835;2457
599;1.8450808999987203;2456
600;1.8479514999999083;2455
601;1.8506865999988804;2455
602;1.8537555999992037;2455
603;1.8561038999996526;2455
604;1.8588102999983676;2454
605;1.8619122000000061;2454
606;1.8648940999992192;2453
607;1.8678857999984757;2453
608;1.8708754999988741;2453
609;1.8739481999982672;2452
610;1.8770856999999523;2452
611;1.8800404999983584;2452
612;1.8830184999987978;2451
613;1.8860320999992837;2451
614;1.8887469999990572;2450
615;1.8918276999993395;2450
616;1.895038199998453;2449
617;1.898107600000003;2448
618;1.9011216999988392;2448
619;1.9037841999997909;2447
620;1.9070975999984512;2446
621;1.910095299999739;2445
622;1.913099899998997;2445
623;1.9159322999985307;2445
624;1.9186560999987705;2445
625;1.9224863999988884;2444
626;1.9264877999994496;2443
627;1.9303664999988541;2442
628;1.934382599998571;2441
629;1.9383663999997225;2440
630;1.942369599999438;2439
631;1.9463595999986865;2438
632;1.9500967999993009;2437
633;1.9533890999991854;2436
634;1.9563788999985263;2436
635;1.9603585999993811;2436
636;1.9642336999986583;2435
637;1.9671964999997726;2434
638;1.9700051999989228;2434
639;1.9731233999991673;2433
640;1.9761293999999907;2433
641;1.9791433999998844;2432
642;1.9831495999987965;2431
643;1.9860450999985915;2431
644;1.9890969999996742;2430
645;1.9920698999994784;2429
646;1.994904499999393;2429
647;1.9979171999984828;2428
648;2.001420299999154;2428
649;2.005446099999972;2427
650;2.0093710999990435;2426
651;2.0129162999983237;2425
652;2.016339499999958;2425
653;2.020058699999936;2424
654;2.023320699998294;2424
655;2.026274199999534;2423
656;2.0291794999993726;2422
657;2.0318966999984696;2421
658;2.03488969999853;2421
659;2.0378256999993027;2420
660;2.0409721999985777;2419
661;2.0439709999991464;2419
662;2.047009399999297;2418
663;2.050007199999527;2418
664;2.053016199999547;2417
665;2.0559026999999332;2417
666;2.059467899998708;2416
667;2.063525799998388;2415
668;2.067409699999189;2414
669;2.070897599998716;2413
670;2.0743138999987423;2413
671;2.0783348999993905;2412
672;2.081353899999158;2411
673;2.08518069999991;2411
674;2.0893126999999367;2410
675;2.0929399999986344;2409
676;2.0959159999983967;2408
677;2.098906299999726;2407
678;2.1019041999988985;2407
679;2.1038434999991296;2407
680;2.10712009999952;2406
681;2.1101368999989063;2406
682;2.1131220999996003;2405
683;2.116124599999239;2404
684;2.119142399998964;2404
685;2.122127399999954;2403
686;2.1251023999993777;2402
687;2.1280963999997766;2402
688;2.130935599998338;2401
689;2.1339549999993324;2401
690;2.1368482999987464;2400
691;2.1399441999983537;2400
692;2.142911999999342;2399
693;2.1465247999985877;2398
694;2.150477499999397;2397
695;2.1534034999986034;2397
696;2.156323399998655;2397
697;2.160396299999775;2396
698;2.164261299998543;2396
699;2.167815499999051;2395
700;2.1696159999992233;2395
701;2.1718311999993603;2395
702;2.1748216999985743;2394
703;2.178409299998748;2394
704;2.1823693999995157;2393
705;2.1865024999988236;2392
706;2.1904857999998057;2391
707;2.1939261999996233;2391
708;2.1972324999987904;2391
709;2.200071299999763;2391
710;2.2029663999983313;2390
711;2.206001999998989;2390
712;2.2089590999985376;2390
713;2.211929599998257;2389
714;2.2150259999998525;2389
715;2.2170190999986517;2389
716;2.2198786999997537;2389
717;2.223389799999495;2388
718;2.2275769999996555;2388
