;time;amplitude
0;0.004991100000552251;2393
1;0.010066799999549403;2393
2;0.014687200000480516;2393
3;0.02022910000050615;2392
4;0.024390100001255632;2392
5;0.028198400001201662;2391
6;0.03200199999992037;2391
7;0.03542779999952472;2391
8;0.03944740000042657;2391
9;0.043116400000144495;2391
10;0.047193200000037905;2390
11;0.05039039999974193;2390
12;0.05442299999958777;2389
13;0.05848160000095959;2389
14;0.06250430000000051;2389
15;0.06492609999986598;2388
16;0.0683366000012029;2388
17;0.07233799999994517;2388
18;0.07653990000108024;2388
19;0.08055419999982405;2387
20;0.08449459999974351;2387
21;0.08854170000086015;2386
22;0.09255029999985709;2386
23;0.09737359999962791;2385
24;0.10146890000032727;2385
25;0.10542329999952926;2385
26;0.10948000000098546;2385
27;0.11361560000113968;2385
28;0.1174671999997372;2385
29;0.12141169999995327;2385
30;0.12545850000060454;2385
31;0.1288886000002094;2386
32;0.13190840000061144;2386
33;0.13490980000096897;2386
34;0.1383850000001985;2386
35;0.1423424000004161;2386
36;0.1452991000005568;2386
37;0.1479632999999012;2386
38;0.15110769999955664;2387
39;0.15407279999999446;2387
40;0.15707500000098662;2387
41;0.16008730000066862;2388
42;0.163085800000772;2388
43;0.16608690000066417;2388
44;0.1690857000012329;2388
45;0.17208109999955923;2388
46;0.17509659999996074;2388
47;0.17807920000086597;2388
48;0.18081220000021858;2388
49;0.18409150000115915;2389
50;0.18708970000079717;2389
51;0.18980410000040138;2389
52;0.1927962000008847;2389
53;0.19579760000124224;2389
54;0.19780879999962053;2389
55;0.2007995000003575;2389
56;0.20382489999974496;2389
57;0.20577849999972386;2390
58;0.2091171000010945;2390
59;0.21198150000054738;2390
60;0.21499580000090646;2391
61;0.21812140000110958;2391
62;0.22079819999999017;2391
63;0.22399310000037076;2391
64;0.2269828000007692;2391
65;0.23010550000071817;2392
66;0.23314589999972668;2392
67;0.23609460000079707;2392
68;0.2390636000000086;2393
69;0.24204240000108257;2393
70;0.24513690000094357;2393
71;0.24776899999960733;2394
72;0.2510357999999542;2394
73;0.25373690000014903;2395
74;0.25709290000122564;2395
75;0.25982590000057826;2396
76;0.2629974999999831;2396
77;0.26597530000071856;2396
78;0.2690866000011738;2396
79;0.27186040000015055;2396
80;0.27497849999963364;2397
81;0.27797629999986384;2397
82;0.28080860000045504;2397
83;0.28383000000030734;2398
84;0.2869855999997526;2398
85;0.28980130000127247;2399
86;0.2929695000002539;2399
87;0.29605780000019877;2399
88;0.29918870000074094;2399
89;0.3020661000009568;2400
90;0.3050359999997454;2400
91;0.30806529999972554;2401
92;0.31106700000054843;2401
93;0.31377989999964484;2402
94;0.3157425000008516;2402
95;0.319063200000528;2403
96;0.32206349999978556;2403
97;0.3250655000010738;2403
98;0.32805780000126106;2404
99;0.3308359000002383;2404
100;0.33405540000057954;2405
101;0.3370621000012761;2406
102;0.3400442000001931;2407
103;0.3430695000006381;2407
104;0.3460088000010728;2408
105;0.34906020000016724;2409
106;0.352054599999974;2409
107;0.3550617000000784;2410
108;0.3580734000006487;2410
109;0.36103900000125577;2411
110;0.3637897000007797;2411
111;0.36706039999990026;2411
112;0.3700607000009768;2412
113;0.37307630000032077;2412
114;0.3760595000003377;2413
115;0.37906939999993483;2414
116;0.38206890000037674;2415
117;0.3850726000000577;2415
118;0.38805710000087856;2416
119;0.3910635000011098;2417
120;0.3939119999995455;2418
121;0.3968703999998979;2418
122;0.40006050000010873;2419
123;0.4030739999998332;2420
124;0.40606079999997746;2420
125;0.4090235000003304;2421
126;0.41206360000069253;2421
127;0.41506630000003497;2422
128;0.418062300001111;2423
129;0.42106869999952323;2424
130;0.4240607000010641;2424
131;0.42708850000053644;2425
132;0.43007609999949636;2426
133;0.4330392000010761;2426
134;0.4360252999995282;2426
135;0.43902470000102767;2427
136;0.4420604999995703;2428
137;0.4450747999999294;2429
138;0.44808000000011816;2429
139;0.45106440000017756;2429
140;0.45403780000015104;2430
141;0.4570524999999179;2430
142;0.46007380000082776;2431
143;0.46279390000017884;2431
144;0.4660635000000184;2431
145;0.4690635000006296;2432
146;0.47197349999987637;2433
147;0.4750629999998637;2433
148;0.4780423000011069;2434
149;0.4807565000010072;2434
150;0.4840726000002178;2435
151;0.4870595000011235;2435
152;0.49005960000067716;2435
153;0.49305550000099174;2436
154;0.4960721999996167;2436
155;0.49906879999980447;2437
156;0.5020676000003732;2437
157;0.5050647999996727;2438
158;0.508062400000199;2440
159;0.510745900000984;2440
160;0.5138211000012234;2441
161;0.5168112000010296;2441
162;0.5198115000002872;2441
163;0.5228041000009398;2443
164;0.5258080000003247;2443
165;0.5289499000009528;2444
166;0.5319434000011825;2445
167;0.5348888999997143;2446
168;0.5379166000002442;2446
169;0.5409426000005624;2446
170;0.5439628000003722;2446
171;0.5469004000005953;2447
172;0.5499942999995255;2448
173;0.5530883999999787;2448
174;0.5560779999996157;2449
175;0.5590750999999727;2450
176;0.5620883000010508;2450
177;0.5650888000000123;2451
178;0.5680840000004537;2451
179;0.5710845000012341;2451
180;0.5740810000006604;2452
181;0.5770771000006789;2452
182;0.5800837999995565;2452
183;0.5830819000002521;2453
184;0.5860828000004403;2454
185;0.5890761999999086;2454
186;0.5920869000001403;2455
187;0.5947561000011774;2455
188;0.5968394999999873;2455
189;0.6000874000001204;2456
190;0.6030793999998423;2456
191;0.6060816999997769;2456
192;0.609083000001192;2457
193;0.6120771999994759;2457
194;0.6150861000005534;2458
195;0.6180801000009524;2459
196;0.6210757000008016;2460
197;0.6240777000002709;2460
198;0.6270858999996562;2460
199;0.6300945000002685;2461
200;0.6330811000007088;2461
201;0.6360830000012356;2462
202;0.6390761000002385;2462
203;0.6417546000011498;2463
204;0.6448362999999517;2463
205;0.6478359000011551;2464
206;0.6508544999996957;2465
207;0.6539900999996462;2465
208;0.6574004000012792;2465
209;0.6614420999994763;2465
210;0.6654052000012598;2465
211;0.6693675000005896;2466
212;0.6731648000004498;2466
213;0.676279400000567;2467
214;0.6792774000005011;2467
215;0.6823476000008668;2467
216;0.6863606000006257;2468
217;0.6903447000004235;2468
218;0.6943699000003107;2468
219;0.6982961000012438;2468
220;0.7023344999997789;2468
221;0.7062894000009692;2468
222;0.7092695000010281;2468
223;0.7134213999997883;2469
224;0.717354600001272;2469
225;0.720824600000924;2469
226;0.7243362999997771;2469
227;0.728379700000005;2468
228;0.7323562000001402;2468
229;0.735859000000346;2469
230;0.7393002000007982;2469
231;0.7433381000009831;2469
232;0.7470640999999887;2469
233;0.750282299999526;2469
234;0.7543672000010702;2469
235;0.7583570000006148;2469
236;0.7623667000007117;2469
237;0.7652775999995356;2469
238;0.7693655000002764;2469
239;0.7733609999995679;2469
240;0.777358400000594;2468
241;0.7808932999996614;2468
242;0.7842995999999403;2468
243;0.7883359999996173;2468
244;0.7923628000007739;2468
245;0.7963626000000659;2468
246;0.7991093000000546;2468
247;0.8023451000008208;2468
248;0.8063584999999875;2468
249;0.8103566999998293;2468
250;0.8138868000005459;2468
251;0.8170761000001221;2468
252;0.8199573000001692;2467
253;0.8229960999997274;2467
254;0.8259990000005928;2467
255;0.828966600000058;2467
256;0.8319974000005459;2467
257;0.8355217000007542;2467
258;0.839466800000082;2467
259;0.8435159000000567;2467
260;0.8468430000011722;2466
261;0.8503789999995206;2466
262;0.8543862999995326;2465
263;0.8583808000003046;2465
264;0.8620781000008719;2465
265;0.864885700000741;2465
266;0.8681314000004932;2464
267;0.8711326000011468;2463
268;0.8741055999998935;2463
269;0.8772304000012809;2463
270;0.8802699999996548;2462
271;0.8831332000008842;2462
272;0.8861180000003515;2462
273;0.889113900000666;2461
274;0.892120900000009;2461
275;0.8951412000005803;2460
276;0.8979839000003267;2460
277;0.9011244000012084;2459
278;0.9041295000006357;2459
279;0.9071505000010802;2458
280;0.9101172000009683;2458
281;0.9131343999997625;2458
282;0.9161284000001615;2457
283;0.9191200000004756;2457
284;0.9221495000001596;2456
285;0.9247713000004296;2456
286;0.9271059000002424;2456
287;0.9300018000012642;2455
288;0.9330716000004031;2455
289;0.9358977000010782;2454
290;0.939040200000818;2453
291;0.9420461999998224;2453
292;0.9449999000007665;2453
293;0.9477509999996983;2453
294;0.9497530999997252;2452
295;0.9517689000003884;2451
296;0.9537036000001535;2450
297;0.9557236000000557;2449
298;0.9576488000002428;2449
299;0.9595731000008527;2448
300;0.9616243000000395;2448
301;0.9636480000008305;2448
302;0.9657817999996041;2448
303;0.9677810000011959;2448
304;0.9697162000011303;2447
305;0.9718226000004506;2447
306;0.9748646000007284;2446
307;0.9781646999999793;2446
308;0.9808241999999154;2445
309;0.9841329000009864;2445
310;0.9871683000001212;2444
311;0.9901141000009375;2443
312;0.9931414000002405;2443
313;0.9961581000006845;2443
314;0.9991398000001936;2442
315;1.002144699999917;2442
316;1.0051081000001432;2441
317;1.008119899999656;2440
318;1.0110358000001725;2440
319;1.0137525999998616;2439
320;1.0171410000002652;2439
321;1.0201035999998567;2438
322;1.0231168000009347;2438
323;1.025838499999736;2438
324;1.0291209000006347;2438
325;1.0321197000012035;2437
326;1.035122000001138;2436
327;1.0381123999995907;2435
328;1.0406741999995575;2435
329;1.0428224000006594;2434
330;1.0461221000005025;2434
331;1.0490485999998782;2433
332;1.0520503999996436;2433
333;1.0550416999994923;2432
334;1.0584151000002748;2431
335;1.0610348999998678;2431
336;1.0638338000007934;2430
337;1.0667974000007234;2429
338;1.0697951000001922;2428
339;1.0728042000009737;2427
340;1.075786600000356;2427
341;1.0787890999999945;2427
342;1.0817335000010644;2426
343;1.085079599999517;2425
344;1.0880873999994947;2425
345;1.090949700001147;2424
346;1.0944022000003315;2423
347;1.0979297000012593;2422
348;1.101071299999603;2422
349;1.1040339000010135;2422
350;1.1070925000003626;2422
351;1.1100946000005933;2421
352;1.1131290000012086;2421
353;1.1160883000011381;2421
354;1.1190996000004816;2420
355;1.1220338000002812;2420
356;1.1251296999998885;2419
357;1.128092500001003;2419
358;1.1308564000009937;2418
359;1.1340935999996873;2418
360;1.1370951999997487;2417
361;1.1400879000011628;2417
362;1.1430686000003334;2416
363;1.1457924000005733;2415
364;1.1481072999995376;2415
365;1.1511043000009522;2414
366;1.154094499999701;2414
367;1.157091600000058;2413
368;1.1600785000009637;2412
369;1.1630998000000545;2412
370;1.166094800000792;2411
371;1.169105099999797;2410
372;1.172011399999974;2410
373;1.1750965000010183;2409
374;1.1780940000007831;2408
375;1.181091500000548;2408
376;1.1840978000000177;2407
377;1.1870963000001211;2407
378;1.1901051000004372;2406
379;1.1931311999996979;2405
380;1.1960897999997542;2404
381;1.199100100000578;2403
382;1.2021017000006395;2403
383;1.2050056000007316;2402
384;1.207748700000593;2402
385;1.211094399999638;2401
386;1.2138200999997935;2401
387;1.2170908999996755;2401
388;1.2200969000004989;2401
389;1.2230522000008932;2400
390;1.226091100001213;2400
391;1.2290873000001739;2400
392;1.2320952999998553;2399
393;1.235103799999706;2399
394;1.2381021000001056;2398
395;1.2407903000002989;2398
396;1.2430844000009529;2398
397;1.2459629000004497;2398
398;1.2478253000008408;2398
399;1.2509647000006225;2397
400;1.2539655000000494;2397
401;1.2569823000012548;2396
402;1.260295000000042;2395
403;1.2639521000000968;2395
404;1.2672424000011233;2395
405;1.2700982000005752;2394
406;1.2731634000010672;2394
407;1.2760109000009834;2393
408;1.2790139999997336;2393
409;1.2820497000011528;2392
410;1.285005200001251;2392
411;1.2880170999997063;2392
412;1.2909806999996363;2392
413;1.2940427000012278;2391
414;1.2969090999995387;2391
415;1.3000728000006347;2390
416;1.303014200000689;2390
417;1.3060125000010885;2390
418;1.3090099000000919;2390
419;1.3120794999995269;2390
420;1.3150932000007742;2389
421;1.3178231000001688;2389
422;1.3197877000002336;2389
423;1.3219277000007423;2389
424;1.3249919999998383;2389
425;1.3280475000010483;2388
426;1.3307915000004868;2388
427;1.333990700000868;2388
428;1.3370159000005515;2388
429;1.3399936000005255;2388
430;1.3429895999997825;2388
431;1.3459917000000132;2388
432;1.348713700001099;2388
433;1.3520121000001382;2388
434;1.3549543999997695;2388
435;1.3579824000007648;2388
436;1.3610105000007025;2388
437;1.3637890000009065;2388
438;1.365784600000552;2388
439;1.368933300000208;2388
440;1.3719982000002346;2387
441;1.3750147000009747;2387
442;1.3780953000004956;2387
443;1.380815900000016;2387
444;1.3841154000001552;2387
445;1.3870939999997063;2387
446;1.3900972999999794;2387
447;1.3930885000008857;2387
448;1.3958096999995178;2387
449;1.3981246000003011;2387
450;1.4010998000012478;2387
451;1.4041293000009318;2387
452;1.4070965999999316;2388
453;1.4100950000010926;2388
454;1.4131316000002698;2387
455;1.4160891000010452;2388
456;1.419097199999669;2388
457;1.4220927000005759;2388
458;1.4251100000001315;2388
459;1.4277526999994734;2387
460;1.4308376000008138;2387
461;1.4341455000012502;2388
462;1.437065399999483;2387
463;1.440016900000046;2388
464;1.4430836999999883;2388
465;1.4459566000004997;2389
466;1.44882460000008;2389
467;1.451780700001109;2390
468;1.4539579000011145;2390
469;1.4572791000009602;2390
470;1.4602221000004647;2390
471;1.463171000001239;2390
472;1.465953900000386;2390
473;1.469092000001183;2390
474;1.471950500001185;2390
475;1.4748476000004302;2390
476;1.4779063000005408;2391
477;1.4807175000005373;2392
478;1.482910599999741;2392
479;1.4858999000007316;2392
480;1.4887567999994644;2393
481;1.4919793000008212;2393
482;1.4950523999996221;2393
483;1.498444400000153;2394
484;1.502684600000066;2395
485;1.5063737000000401;2395
486;1.510489600001165;2395
487;1.5139569000002666;2395
488;1.5173449000012624;2395
489;1.5212922999999137;2396
490;1.524914900001022;2396
491;1.5280359999997017;2396
492;1.5310840000001917;2397
493;1.5339602000003651;2397
494;1.5371138999998948;2397
495;1.5400282999999035;2398
496;1.5429538999997021;2399
497;1.5459301000009873;2399
498;1.5487633000011556;2399
499;1.5508862999995472;2399
500;1.553879400000369;2399
501;1.556978300000992;2399
502;1.5600145000007615;2400
503;1.5629632000000129;2400
504;1.5657499999997526;2401
505;1.5689426999997522;2401
506;1.5717005000005884;2401
507;1.5748702000000776;2401
508;1.577864500000942;2401
509;1.5808575999999448;2402
510;1.583810899999662;2403
511;1.5856249000007665;2403
512;1.5876253000005818;2404
513;1.5896412000001874;2404
514;1.59172960000069;2404
515;1.5937548000001698;2404
516;1.5957462000005762;2405
517;1.5977094000008947;2405
518;1.5997446000001219;2405
519;1.6018022999996901;2406
520;1.6040250000005472;2406
521;1.6069182999999612;2407
522;1.609946000000491;2407
523;1.6129207000012684;2407
524;1.6147507000005135;2408
525;1.617811600001005;2408
526;1.6200855999995838;2409
527;1.6229065000006813;2409
528;1.6257617000010214;2410
529;1.6279393000004347;2411
530;1.630815700000312;2412
531;1.6341812999999092;2412
532;1.636933300000237;2413
533;1.6399672999996255;2413
534;1.642966499999602;2414
535;1.6457404000011593;2415
536;1.6477750000012747;2416
537;1.6513635999999678;2417
538;1.6554654999999912;2418
539;1.6604101000011724;2418
540;1.664213699999891;2419
541;1.6681050999995932;2420
542;1.6726259999995818;2420
543;1.6763059000004432;2421
544;1.6799093000008725;2422
545;1.682892200000424;2422
546;1.6858927000012045;2423
547;1.689287900000636;2424
548;1.6922281999995903;2424
549;1.6950933000007353;2425
550;1.6980748000005406;2425
551;1.7021464999997988;2426
552;1.7050075999995897;2426
553;1.7078292999995028;2427
554;1.7096739000007801;2428
555;1.7118162999995548;2428
556;1.7151076999998622;2429
557;1.7176919000012276;2429
558;1.7197902999996586;2430
559;1.7228565000004892;2430
560;1.7258154999999533;2430
561;1.7276749000011478;2431
562;1.7297355999999127;2431
563;1.7320368000000599;2432
564;1.7347385000011855;2433
565;1.7382539000009274;2433
566;1.7408169000009366;2435
567;1.743076500000825;2435
568;1.745940700000574;2436
569;1.7488100999999006;2436
570;1.7519460000003164;2437
571;1.7547852999996394;2438
572;1.7579501000000164;2439
573;1.760902600000918;2439
574;1.7637109000006603;2439
575;1.7668092000003526;2440
576;1.768804799999998;2440
577;1.7719692000009672;2441
578;1.774748300000283;2442
579;1.776839199999813;2442
580;1.7788204000007681;2442
581;1.7806882000004407;2442
582;1.7826275999996142;2443
583;1.7857139999996434;2443
584;1.787694399999964;2443
585;1.7898201999996672;2443
586;1.7917835000007472;2444
587;1.7937591000008979;2444
588;1.7956575000007433;2445
589;1.7980523999995057;2445
590;1.8008664000008139;2445
591;1.8026917000006506;2446
592;1.8048245999998471;2447
593;1.8067664000009245;2447
594;1.808655099999669;2447
595;1.8108611999996356;2447
596;1.8128986000010627;2448
597;1.8161090000012337;2449
598;1.818945299999541;2449
599;1.8221677000001364;2450
600;1.8251858000003267;2450
601;1.8281542000004265;2451
602;1.8307380999995075;2451
603;1.8326985000003333;2452
604;1.834762899999987;2453
605;1.8366703000010602;2453
606;1.838809400000173;2454
607;1.8407932000009168;2454
608;1.8426018000009208;2454
609;1.8448041999999987;2454
610;1.8466750999996293;2455
611;1.8487039000010554;2455
612;1.8506807000012486;2456
613;1.8526555000007647;2456
614;1.8547784000002139;2456
615;1.8567048000004434;2457
616;1.858713200001148;2458
617;1.8607955999996193;2458
618;1.8628227999997762;2459
619;1.8646857000003365;2459
620;1.8667556000000332;2459
621;1.8700391000002128;2459
622;1.873293200000262;2460
623;1.8759941999996954;2461
624;1.8789804999996704;2461
625;1.8806862000001274;2461
626;1.8837452000007033;2461
627;1.8859260000008362;2461
628;1.8888907000000472;2461
629;1.8919989999994868;2461
630;1.8950306999995519;2462
631;1.897815800000899;2462
632;1.8998556999995344;2462
633;1.901855300000534;2463
634;1.904774800001178;2463
635;1.9079318000003695;2463
636;1.9107940000012604;2463
637;1.9127476000012393;2463
638;1.914857600000687;2464
639;1.9167245000007824;2464
640;1.9186917999995785;2465
641;1.9219293000005564;2465
642;1.9247040999998717;2465
643;1.9269051000010222;2465
644;1.9297158999997919;2465
645;1.9317093999998178;2465
646;1.9338244999999006;2465
647;1.9367204999998648;2465
648;1.938948099999834;2465
649;1.941797100000258;2466
650;1.9450988999997207;2466
651;1.9480158000005758;2466
652;1.9512255000008736;2466
653;1.954006699999809;2466
654;1.9570010000006732;2467
655;1.9599803000000975;2467
656;1.9628903000011633;2467
657;1.9658306000001176;2467
658;1.9687869000008504;2468
659;1.9719493000011425;2468
660;1.9747335000010935;2468
661;1.9769840000008116;2468
662;1.9797777000003407;2468
663;1.9822798000004695;2469
664;1.9848161000008986;2468
665;1.9881660000010015;2468
666;1.9910078000011708;2469
667;1.9939637999996194;2469
668;1.9969123999999283;2469
669;1.999949099999867;2469
670;2.0028945000012754;2469
671;2.005974100000458;2469
672;2.0087995000012597;2469
673;2.011125000000902;2469
674;2.014196800000718;2469
675;2.0167320000000473;2469
676;2.018779199999699;2469
677;2.0219446000010066;2470
678;2.025303000000349;2469
679;2.028223799999978;2469
680;2.03080349999982;2469
681;2.034269800000402;2469
682;2.0368684000004578;2469
683;2.040201199999501;2469
684;2.0428306000012526;2469
685;2.0450736000002507;2469
686;2.0479759000008926;2469
687;2.0508090000002994;2469
688;2.0543980000002193;2469
689;2.0582857000008516;2469
690;2.0624901999999565;2468
691;2.0663099000012153;2468
692;2.070056399999885;2468
693;2.0730545000005804;2467
694;2.076364200000171;2467
695;2.0799650000008114;2467
696;2.0828749000011157;2467
697;2.086302900001101;2467
698;2.090324099999634;2467
699;2.0933497000005445;2466
700;2.096806999999899;2466
701;2.098837600000479;2466
702;2.1022704999995767;2465
703;2.1048979999995936;2465
704;2.108261900000798;2465
705;2.111075400000118;2465
706;2.114937700000155;2464
707;2.1178928000008455;2464
708;2.1213117000006605;2463
709;2.124197000001004;2462
710;2.1272821000002295;2462
711;2.1298770000012155;2462
712;2.13289050000094;2461
713;2.1362604000005376;2461
714;2.138899900000979;2461
715;2.1422514999994746;2461
716;2.1451807000012195;2461
717;2.1478124000004755;2461
