;time;amplitude
0;0.004147900001044036;2668
1;0.007628900000781869;2668
2;0.010617300000376417;2669
3;0.013605800000732415;2670
4;0.017092900001443923;2671
5;0.021143300000403542;2671
6;0.025821400000495487;2672
7;0.02866350000113016;2672
8;0.03203130000110832;2672
9;0.036078099999940605;2672
10;0.04053850000127568;2672
11;0.04358250000041153;2672
12;0.046770000000833534;2672
13;0.05000629999994999;2672
14;0.0540463000015734;2672
15;0.057451900000160094;2672
16;0.06065660000058415;2673
17;0.06400460000077146;2674
18;0.06785470000068017;2673
19;0.07197520000045188;2674
20;0.07590320000053907;2673
21;0.07873500000096101;2673
22;0.08304670000143233;2673
23;0.08700730000055046;2673
24;0.09052840000003926;2672
25;0.0946698000007018;2671
26;0.09906779999982973;2671
27;0.10304800000085379;2670
28;0.10597600000073726;2670
29;0.10883710000052815;2670
30;0.11299050000161515;2670
31;0.1169876000003569;2669
32;0.12044830000013462;2669
33;0.12360640000042622;2668
34;0.12647420000030252;2668
35;0.12966170000072452;2667
36;0.1328678999998374;2666
37;0.13669520000075863;2665
38;0.13985310000134632;2664
39;0.1427694000012707;2663
40;0.14544030000070052;2663
41;0.14888849999988452;2662
42;0.15243590000136464;2661
43;0.15578190000087488;2660
44;0.15878750000047148;2660
45;0.16145850000066275;2659
46;0.1657825000002049;2658
47;0.16994380000141973;2657
48;0.17357179999999062;2656
49;0.17649250000067696;2656
50;0.17942949999996927;2655
51;0.1829157000011037;2654
52;0.18693520000124408;2653
53;0.1904465000006894;2652
54;0.19344580000142741;2651
55;0.19686100000035367;2651
56;0.20095780000156083;2650
57;0.204913999999917;2649
58;0.20847890000004554;2648
59;0.21149120000154653;2647
60;0.214724200001001;2646
61;0.21894910000082746;2645
62;0.22293920000083745;2644
63;0.22578140000041458;2643
64;0.22840030000043043;2642
65;0.23169200000120327;2641
66;0.2356980000004114;2640
67;0.23866840000118827;2639
68;0.24134500000036496;2638
69;0.24453790000006848;2637
70;0.24786219999987225;2636
71;0.25195050000002084;2634
72;0.2559436999999889;2632
73;0.25883470000007947;2631
74;0.2615123000014137;2630
75;0.2645914000004268;2628
76;0.26756940000086615;2627
77;0.2704592000009143;2626
78;0.2732822000016313;2624
79;0.27654900000015914;2622
80;0.27985179999996035;2621
81;0.28372590000071796;2619
82;0.2878556000014214;2618
83;0.2914390000005369;2616
84;0.2944637000000512;2614
85;0.29895630000100937;2613
86;0.3028823000004195;2610
87;0.30535090000012133;2608
88;0.3087991000011243;2607
89;0.31130600000142294;2605
90;0.31438510000043607;2604
91;0.3166882000004989;2603
92;0.3209245000016381;2601
93;0.3244298000008712;2599
94;0.32761720000053174;2597
95;0.3308498000005784;2595
96;0.333585000000312;2594
97;0.3365944000015588;2592
98;0.3395754000011948;2591
99;0.34264620000067225;2589
100;0.3454849000008835;2588
101;0.3486114000006637;2586
102;0.3516181000013603;2585
103;0.35460020000027725;2583
104;0.35727680000127293;2581
105;0.3605531000011979;2580
106;0.3638341000005312;2578
107;0.3674224000005779;2576
108;0.3708633000005648;2574
109;0.3743456000011065;2572
110;0.37743220000083966;2571
111;0.38032639999983076;2569
112;0.3835690000014438;2567
113;0.3864610000000539;2565
114;0.38961830000152986;2563
115;0.39286790000005567;2562
116;0.39560870000059367;2560
117;0.3985382999999274;2558
118;0.4015314000007493;2556
119;0.404540999999881;2554
120;0.40724730000147247;2552
121;0.4105009000013524;2551
122;0.41336540000156674;2549
123;0.4166156999999657;2547
124;0.4196479000002;2545
125;0.42327950000071723;2542
126;0.4255215000011958;2540
127;0.4285295000008773;2539
128;0.4314847000005102;2537
129;0.43449430000146094;2535
130;0.4371829000010621;2533
131;0.43961680000029446;2531
132;0.44253000000026077;2530
133;0.44537080000009155;2528
134;0.4498821000015596;2525
135;0.45392160000119475;2522
136;0.45739360000152374;2519
137;0.4608670000015991;2517
138;0.4649472000000969;2514
139;0.46891990000040096;2511
140;0.47294910000164236;2508
141;0.4754147000003286;2506
142;0.4785671000008733;2504
143;0.48279920000095444;2502
144;0.4868538999999146;2499
145;0.4903355000005831;2496
146;0.4934400000001915;2494
147;0.496848200000386;2491
148;0.5008568000012019;2489
149;0.5034680000007938;2486
150;0.5065375000012864;2484
151;0.5093493000003946;2482
152;0.5128359000009368;2479
153;0.5158279000006587;2476
154;0.5186616999999387;2474
155;0.521618100001433;2472
156;0.5243178000000626;2469
157;0.5275454000002355;2468
158;0.5308886000002531;2465
159;0.534915500000352;2463
160;0.5389244000016333;2460
161;0.5413397000011173;2457
162;0.5438247000001866;2456
163;0.5466919000009511;2453
164;0.5497203000013542;2451
165;0.5525114000010944;2449
166;0.5555342000006931;2447
167;0.5584503000009136;2445
168;0.5613302000001568;2442
169;0.5644433000015852;2440
170;0.5678035000000818;2437
171;0.5718691000001854;2434
172;0.5758200000000215;2432
173;0.5800257999999303;2429
174;0.5840000000007421;2426
175;0.5879723000016384;2423
176;0.5914640000009967;2420
177;0.5946137999999337;2418
178;0.5977763999999297;2417
179;0.6006293000009464;2414
180;0.603750600001149;2412
181;0.606827900001008;2410
182;0.6095511000003171;2408
183;0.6127292000001034;2406
184;0.6157361000005039;2403
185;0.618742900000143;2401
186;0.6216731000004074;2399
187;0.6244439000001876;2397
188;0.6274890000004234;2395
189;0.6307206000001315;2393
190;0.6337203000002773;2391
191;0.6365398000016285;2388
192;0.6396582000015769;2387
193;0.6424305000000459;2385
194;0.6455370000003313;2382
195;0.6484287000002951;2380
196;0.6517370000001392;2378
197;0.6543994000003295;2375
198;0.6573244999999588;2373
199;0.6595492000014929;2372
200;0.6624121000004379;2370
201;0.6655378000014025;2368
202;0.6685096000001067;2365
203;0.671568900001148;2362
204;0.674340100000336;2360
205;0.6774999000008393;2357
206;0.6808287000003475;2355
207;0.6849664000001212;2353
208;0.6883952000007412;2350
209;0.6913211999999476;2347
210;0.6948429000003671;2345
211;0.6978491000008944;2343
212;0.7014992000003986;2340
213;0.7048789000000397;2338
214;0.7085446000000957;2335
215;0.7118890000001556;2333
216;0.7157424000015453;2330
217;0.7186710000005405;2328
218;0.721561100001054;2326
219;0.724366700000246;2324
220;0.7274554000014177;2322
221;0.7304647000000841;2319
222;0.7334657000010338;2317
223;0.7365336000002571;2315
224;0.7395666000011261;2313
225;0.7426390000000538;2311
226;0.7458373000008578;2309
227;0.7486955000003945;2307
228;0.7517016000001604;2305
229;0.7547376000002259;2303
230;0.7584274000000732;2301
231;0.7616491000007954;2299
232;0.7646226000015304;2297
233;0.7676079000011669;2295
234;0.7706704000011086;2294
235;0.7732953000013367;2292
236;0.7753330000014103;2291
237;0.7783868000005896;2289
238;0.7829098000001977;2286
239;0.7869217000006756;2284
240;0.7905927000010706;2282
241;0.7938629000000219;2280
242;0.7978992000007565;2278
243;0.8019702000001416;2276
244;0.805938999999853;2274
245;0.8088399000007485;2273
246;0.8116828000001988;2271
247;0.8146895999998378;2270
248;0.8177277000013419;2268
249;0.8207006000011461;2266
250;0.8234669000012218;2265
251;0.8264916000007361;2263
252;0.829653300001155;2262
253;0.8326400000005378;2261
254;0.8356791000005614;2259
255;0.8385397000001831;2257
256;0.8416818000005151;2256
257;0.8446563000015885;2253
258;0.8476707999998325;2251
259;0.8504591000000801;2250
260;0.8526493000008486;2249
261;0.8556679000012082;2248
262;0.8584504999998899;2246
263;0.8616661000014574;2244
264;0.8646574000013061;2243
265;0.867367100001502;2241
266;0.8706632000012178;2240
267;0.873281300000599;2238
268;0.8756264000003284;2237
269;0.8786724000001414;2236
270;0.8816640000004554;2235
271;0.8846539000005578;2233
272;0.8876612000003661;2232
273;0.890225900000587;2230
274;0.8936293000006117;2230
275;0.8966387000000395;2228
276;0.899543999999878;2227
277;0.9026744000002509;2226
278;0.9056615000008605;2224
279;0.9086772999999084;2223
280;0.9115113000007113;2221
281;0.9146633000000293;2220
282;0.9173263000011502;2219
283;0.9206635000009555;2218
284;0.9232026000008773;2217
285;0.9256352000011248;2216
286;0.9286388000000443;2216
287;0.9316135000008217;2215
288;0.9346516000005067;2214
289;0.9376387000011164;2213
290;0.9402420000005804;2212
291;0.9436464000009437;2211
292;0.9466489000005822;2210
293;0.9496423000000505;2209
294;0.952634900000703;2208
295;0.9556828000004316;2207
296;0.95865970000159;2207
297;0.9616518000002543;2206
298;0.9645790000013221;2205
299;0.9675024000007397;2204
300;0.9702912000011565;2204
301;0.9722990999998729;2203
302;0.9742874000003212;2203
303;0.9773214000015287;2202
304;0.9794857000015327;2202
305;0.9826602000011917;2202
306;0.9855155000004743;2201
307;0.9885017000015068;2200
308;0.9914042000000336;2200
309;0.9945155000004888;2199
310;0.9973261000013736;2199
311;1.0005240999998932;2198
312;1.003332500000397;2197
313;1.006506800000352;2197
314;1.009555900000123;2196
315;1.012599499999851;2196
316;1.0154832000007445;2196
317;1.018671000001632;2195
318;1.0215409000011277;2195
319;1.0244235000009212;2195
320;1.0275399000001926;2194
321;1.0307166000002326;2193
322;1.0334828000013658;2193
323;1.036493800000244;2193
324;1.0397533000013937;2194
325;1.0425221000004967;2193
326;1.045583400000396;2193
327;1.0484732000004442;2193
328;1.0513478000011673;2193
329;1.054505900001459;2192
330;1.0573901000007027;2192
331;1.0605205000010756;2192
332;1.0635236000016448;2192
333;1.0662353000006988;2192
334;1.0684008000007452;2192
335;1.0712203000002773;2192
336;1.0732033000003867;2192
337;1.0754802000010386;2192
338;1.0787045000015496;2193
339;1.0827485000008892;2193
340;1.0868586000015057;2194
341;1.090904500000761;2194
342;1.0949563000012859;2194
343;1.0987394000003405;2195
344;1.1017369000001054;2195
345;1.104502300000604;2195
346;1.107534000000669;2195
347;1.1105478000008588;2195
348;1.1133551000002626;2195
349;1.1155453000010311;2196
350;1.1184030000003986;2196
351;1.1203020000011747;2196
352;1.1221505000012257;2197
353;1.124280500000168;2197
354;1.1262271000014152;2198
355;1.12820930000089;2198
356;1.1302200999998604;2199
357;1.132433900000251;2199
358;1.134204600000885;2200
359;1.1363177000002906;2201
360;1.1383070000010775;2201
361;1.1415288000007422;2201
362;1.1432409000008192;2201
363;1.1453416000003926;2202
364;1.1472623000008753;2202
365;1.1492995000007795;2202
366;1.1513047000007646;2203
367;1.1543156000007002;2203
368;1.1562170000015612;2204
369;1.1584180999998352;2204
370;1.1603098000014143;2204
371;1.1622313000007125;2204
372;1.1643008999999438;2205
373;1.1672265000015614;2205
374;1.1693004000007932;2206
375;1.1723337000003085;2206
376;1.175284000000829;2207
377;1.1784689000014623;2208
378;1.1813483000005363;2209
379;1.1834857000012562;2209
380;1.1865052000011929;2210
381;1.1894690000008268;2211
382;1.192521700000725;2212
383;1.1964009000002989;2213
384;1.1998197000011714;2214
385;1.2034025000011752;2215
386;1.2063406000015675;2215
387;1.2096153000002232;2216
388;1.2124817000003532;2217
389;1.2153953000015463;2218
390;1.2185557000011613;2219
391;1.2212845000012749;2220
392;1.224531300000308;2222
393;1.227507900001001;2223
394;1.2305673999999271;2224
395;1.2333856000004744;2225
396;1.2352410000003147;2226
397;1.2372174000011;2227
398;1.2393800999998348;2228
399;1.2414797000001272;2228
400;1.2443964000012784;2229
401;1.2463688000007096;2231
402;1.248338600000352;2232
403;1.2513569000002462;2233
404;1.254429300000993;2234
405;1.2561534000014944;2235
406;1.2583924999998999;2236
407;1.2613838000015676;2237
408;1.2633647000002384;2238
409;1.2664621000003535;2239
410;1.2695597000001726;2240
411;1.2722822000014276;2242
412;1.274241000000984;2243
413;1.2762036000003718;2244
414;1.2783244000002014;2244
415;1.2802543000016158;2245
416;1.282247400000415;2246
417;1.284186500000942;2247
418;1.2862140000015643;2248
419;1.2882988000001205;2249
420;1.2913146000009874;2250
421;1.2932291000015539;2251
422;1.2952475000001868;2252
423;1.2971946000016032;2253
424;1.2993390999999974;2254
425;1.301265500000227;2255
426;1.3032333999999537;2256
427;1.3051986000009492;2257
428;1.3073127000006934;2258
429;1.3102575000011711;2259
430;1.3125587000013184;2261
431;1.315404100001615;2262
432;1.3181227000004583;2263
433;1.3205480000015086;2265
434;1.3232009000003018;2266
435;1.3253017000006366;2267
436;1.3284113000008801;2269
437;1.331384099999923;2270
438;1.3344723000009253;2272
439;1.3376713000016025;2273
440;1.3403101000003517;2275
441;1.3434257000008074;2276
442;1.3463933000002726;2278
443;1.349371300000712;2279
444;1.3512277000008908;2281
445;1.3534182000003057;2282
446;1.3553950000004988;2283
447;1.3572278000010556;2284
448;1.3592008000014175;2285
449;1.361389900001086;2286
450;1.3643800999998348;2288
451;1.367235300000175;2290
452;1.3703823000014381;2292
453;1.3732156000005489;2294
454;1.3753316000002087;2296
455;1.3773132000005717;2297
456;1.3792028000007122;2298
457;1.3813075000016397;2300
458;1.3842902000014874;2301
459;1.387318500001129;2302
460;1.3894146000002365;2304
461;1.3912505000007513;2306
462;1.3932021000000532;2307
463;1.3952506000005087;2308
464;1.3972430000012537;2309
465;1.400270600001022;2311
466;1.403472600000896;2313
467;1.4061881000016;2315
468;1.4082949000003282;2317
469;1.411534599999868;2319
470;1.414837800000896;2321
471;1.4177878000009514;2323
472;1.4212719000006473;2325
473;1.4243243000000803;2328
474;1.4276900000004389;2330
475;1.430794200001401;2332
476;1.433344400000351;2334
477;1.4351292999999714;2335
478;1.4372295000011945;2337
479;1.4393445000005158;2338
480;1.441666400000031;2339
481;1.4442529000007198;2341
482;1.4463871000007202;2342
483;1.448234900000898;2344
484;1.4503691000008985;2345
485;1.4522679000001517;2347
486;1.4542792000011104;2348
487;1.4561389000009513;2350
488;1.4581933000008576;2351
489;1.4603635000003123;2352
490;1.462290400000711;2354
491;1.4642946000003576;2355
492;1.4663135000009788;2356
493;1.4681293000012374;2358
494;1.470184000001609;2360
495;1.4723428000015701;2361
496;1.4755420000001322;2363
497;1.4784635000014532;2365
498;1.481172499999957;2367
499;1.4836333000002924;2368
500;1.4864598000003753;2371
501;1.4892828000010923;2373
502;1.4913773000007495;2375
503;1.4932945000000473;2376
504;1.4951670999998896;2378
505;1.4973693000010826;2379
506;1.4992863000006764;2381
507;1.5012608000015462;2382
508;1.5032065000013972;2383
509;1.5052389000011317;2385
510;1.508622800000012;2387
511;1.5117643000012322;2389
512;1.5143975999999384;2392
513;1.517209500001627;2394
514;1.5193933000009565;2396
515;1.5221323000005214;2397
516;1.5243888000004517;2399
517;1.52618910000092;2400
518;1.5286036000015883;2402
519;1.5313879000004817;2403
520;1.534240700000737;2406
521;1.5372796000010567;2408
522;1.5404005000000325;2410
523;1.5432290000007924;2412
524;1.5453071000010823;2414
525;1.5484322000011161;2416
526;1.551462299999912;2418
527;1.5545529999999417;2420
528;1.5573978000011266;2423
529;1.560550800000783;2425
530;1.5634490000011283;2427
531;1.5664630999999645;2429
532;1.5696607999998378;2431
533;1.572441300000719;2434
534;1.5744690999999875;2436
535;1.5773162000004959;2438
536;1.580470000000787;2440
537;1.5834912000009354;2442
538;1.5865044000001944;2444
539;1.589568400000644;2446
540;1.5924949000000197;2448
541;1.5954534000011336;2451
542;1.5982129000003624;2453
543;1.6003402000005735;2455
544;1.602340400000685;2457
545;1.6042393000006996;2458
546;1.606210200001442;2460
547;1.6083754999999655;2461
548;1.6103231000015512;2463
549;1.6131860000004963;2465
550;1.615337900000668;2467
551;1.6172130000013567;2469
552;1.6191969999999856;2470
553;1.6213020000013785;2472
554;1.623267200000555;2473
555;1.6253282000016043;2475
556;1.627163000001019;2476
557;1.629249500001606;2477
558;1.631120900001406;2479
559;1.6332485000002634;2480
560;1.6352673000001232;2482
561;1.6372590999999375;2483
562;1.6391168999998627;2485
563;1.6413535000010597;2486
564;1.6433448000007047;2488
565;1.6461457000004884;2490
566;1.6481531000008545;2491
567;1.6502349000002141;2493
568;1.6521490000013728;2495
569;1.6543007000000216;2496
570;1.6572305000008782;2498
571;1.6602100000000064;2500
572;1.662322400001358;2503
573;1.6641993000012008;2504
574;1.66618230000131;2505
575;1.6682493000007526;2507
576;1.6703477000010025;2508
577;1.67325190000156;2510
578;1.6752967000011267;2512
579;1.6773377000008622;2513
580;1.6802637000000686;2514
581;1.682353600001079;2516
582;1.6844131000016205;2518
583;1.686206400001538;2519
584;1.688371600001119;2521
585;1.691399100000126;2522
586;1.6932428000000073;2524
587;1.6953344000012294;2525
588;1.69715350000115;2527
589;1.6992113000014797;2528
590;1.7012477000007493;2529
591;1.7033561000007467;2531
592;1.7061989000012545;2533
593;1.7086115000001882;2535
594;1.7114498999999341;2537
595;1.714322700001503;2539
596;1.7177672000016173;2541
597;1.7218810000013036;2543
598;1.725921200000812;2546
599;1.729554100000314;2549
600;1.7325753000004624;2552
601;1.73535609999999;2554
602;1.7385017000015068;2555
603;1.7413412000005337;2557
604;1.744903200000408;2559
605;1.7483964000002743;2562
606;1.751502300001448;2564
607;1.7543604000002233;2567
608;1.756267000000662;2568
609;1.7584232000008342;2569
610;1.760425500000565;2571
611;1.7625064000003476;2572
612;1.7652344000016456;2573
613;1.7674061000016081;2575
614;1.771006100001614;2576
615;1.7749405000013212;2579
616;1.7777611000001343;2581
617;1.7808181000000332;2583
618;1.7850214000009146;2585
619;1.7889365999999427;2587
620;1.7918812000007165;2589
621;1.7958770000004733;2591
622;1.7998176000000967;2593
623;1.8028849000002083;2595
624;1.8067494000006263;2596
625;1.8108890000003157;2599
626;1.8146972000013193;2600
627;1.81768540000121;2602
628;1.8205771000011737;2604
629;1.823330300001544;2605
630;1.82660770000075;2607
631;1.829503000000841;2609
632;1.8328661000014108;2611
633;1.836939100001473;2613
634;1.8404420000006212;2615
635;1.843727500001478;2616
636;1.8466410000000906;2618
637;1.8496489000008296;2620
638;1.8525408000004973;2621
639;1.8557909000010113;2622
640;1.8583122000000003;2624
641;1.860320200001297;2625
642;1.8633152000002156;2626
643;1.8652798000002804;2627
644;1.8688373000004503;2629
645;1.871769299999869;2631
646;1.8745085999998992;2632
647;1.877624900000228;2633
648;1.8804291000014928;2635
649;1.883188900001187;2636
650;1.8865952000014659;2637
651;1.889504400000078;2639
652;1.8927072000005865;2640
653;1.895855600001596;2641
654;1.9000986000010016;2642
655;1.9039912000007462;2644
656;1.906421900001078;2645
657;1.9098341000008077;2646
658;1.913768300000811;2648
659;1.9167313000016293;2649
660;1.9194446000001335;2651
661;1.9223538000005647;2651
662;1.9243123000014748;2652
663;1.9262466000000131;2653
664;1.928341000000728;2654
665;1.93155520000073;2655
666;1.934584200000245;2656
667;1.9375970000000962;2657
668;1.940326100000675;2658
669;1.9426125000009051;2658
670;1.9455535000015516;2658
671;1.948547600000893;2659
672;1.9516612000006717;2660
673;1.9546576000011555;2661
674;1.957503600000564;2662
675;1.9605141000010917;2663
676;1.9634731000005559;2663
677;1.9667453000001842;2664
678;1.9709757000000536;2665
679;1.9749798000011651;2666
680;1.9792814000011276;2666
681;1.9844891000011557;2667
682;1.9895024000015837;2668
683;1.9944978000003175;2669
684;1.999536100000114;2669
685;2.004469000001336;2670
686;2.007870900000853;2671
687;2.0121075000006385;2672
688;2.0161771000002773;2672
689;2.0201210000013816;2672
690;2.0236646000012115;2672
691;2.0268094000002748;2672
692;2.0310659000006126;2673
693;2.0355811000008543;2673
694;2.038930500000788;2673
695;2.0419235000008484;2673
696;2.045997500001249;2674
697;2.049987600001259;2675
698;2.0539904000015667;2675
699;2.0576197000009415;2675
700;2.06197930000053;2675
701;2.0659679000000324;2675
702;2.070007100001021;2675
703;2.073505700000169;2675
704;2.0770578000010573;2675
705;2.0796318000011524;2675
706;2.082501200000479;2675
707;2.085440599999856;2675
708;2.088444000000891;2675
709;2.091470400000617;2675
710;2.0944864000011876;2675
711;2.0974258000005648;2676
712;2.101005800001076;2676
713;2.104966599999898;2675
714;2.1089246999999887;2675
715;2.1129197999998723;2675
716;2.1158773000006477;2674
717;2.1188532000014675;2673
718;2.1229923000009876;2673
