;time;amplitude
0;0.0035848000006808434;2398
1;0.008152100001098006;2398
2;0.012665700000070501;2399
3;0.017205800000738236;2399
4;0.022204700000656885;2399
5;0.026409800000692485;2399
6;0.031006400000478607;2400
7;0.03497430000061286;2400
8;0.038799900001322385;2400
9;0.04298030000063591;2400
10;0.0465146000005916;2400
11;0.04941730000064126;2401
12;0.05241370000112511;2401
13;0.05538979999982985;2401
14;0.05839730000116106;2401
15;0.06137240000134625;2401
16;0.06439769999997225;2401
17;0.06739120000020193;2402
18;0.07039820000136388;2402
19;0.07338390000040818;2403
20;0.07639110000127403;2403
21;0.079395900000236;2403
22;0.08240719999957946;2404
23;0.08541560000048776;2404
24;0.08825520000027609;2405
25;0.09140509999997448;2405
26;0.09435480000138341;2405
27;0.09740550000060466;2406
28;0.10043399999995017;2406
29;0.10340410000026168;2406
30;0.10640950000015437;2407
31;0.10940620000110357;2407
32;0.11228269999992335;2408
33;0.1154091000007611;2408
34;0.11841350000031525;2409
35;0.12155499999971653;2409
36;0.12441430000035325;2409
37;0.12741020000066783;2409
38;0.13040449999971315;2410
39;0.1334158000008756;2410
40;0.1361293999998452;2411
41;0.13943060000019614;2411
42;0.14287630000035278;2411
43;0.14671989999988;2412
44;0.15057970000088972;2412
45;0.15355730000010226;2413
46;0.1564008000004833;2414
47;0.15937750000011874;2414
48;0.16220539999994799;2414
49;0.16541010000037204;2415
50;0.16841270000077202;2416
51;0.1714284999998199;2416
52;0.17441739999958372;2416
53;0.17740240000057383;2417
54;0.18043039999975008;2417
55;0.1834247000006144;2418
56;0.18640640000012354;2418
57;0.1894045000008191;2419
58;0.19243579999965732;2419
59;0.19523500000104832;2420
60;0.19815510000080394;2421
61;0.2014030999998795;2422
62;0.2044082000011258;2422
63;0.20740310000110185;2423
64;0.21040530000027502;2423
65;0.2134385999997903;2423
66;0.21631970000089495;2424
67;0.21940280000126222;2425
68;0.22242840000035358;2425
69;0.225396499999988;2425
70;0.2280456000007689;2426
71;0.23017369999979564;2426
72;0.2332157000000734;2427
73;0.23666059999959543;2427
74;0.2402644000012515;2427
75;0.243163099999947;2428
76;0.24625930000001972;2428
77;0.24953720000121393;2429
78;0.25252739999996265;2429
79;0.2554680000012013;2430
80;0.258483100000376;2430
81;0.2615177000006952;2431
82;0.2657505000006495;2431
83;0.269727500000954;2432
84;0.2737293000009231;2432
85;0.27776430000085384;2433
86;0.28170830000090064;2433
87;0.285720300000321;2434
88;0.2897294000013062;2435
89;0.29367740000088816;2435
90;0.2966926999997668;2436
91;0.3007288000007975;2436
92;0.30472569999983534;2437
93;0.3087249000000156;2437
94;0.31223119999958726;2439
95;0.3156651999997848;2439
96;0.3197237000003952;2440
97;0.32373440000083065;2440
98;0.3277371000003768;2441
99;0.3306881999997131;2441
100;0.33472489999985555;2441
101;0.3387252000011358;2442
102;0.3427216000000044;2442
103;0.346711400001368;2443
104;0.3507294000010006;2444
105;0.35471940000024915;2444
106;0.35872220000055677;2444
107;0.3615138000004663;2445
108;0.36464080000041577;2446
109;0.36763820000123815;2445
110;0.370635700001003;2446
111;0.37467930000093475;2447
112;0.3782637000003888;2447
113;0.3816657999996096;2448
114;0.38573019999967073;2447
115;0.38972450000073877;2448
116;0.39373210000121617;2448
117;0.39669080000021495;2449
118;0.4007238000012876;2449
119;0.40463810000073863;2450
120;0.40872660000059113;2450
121;0.4122633999995742;2451
122;0.4156687000013335;2452
123;0.41975450000063574;2452
124;0.42214140000032785;2452
125;0.42415580000124464;2452
126;0.4261127000008855;2453
127;0.42806820000078005;2453
128;0.4303207000011753;2453
129;0.4334099999996397;2453
130;0.43604360000063025;2454
131;0.4393801000005624;2454
132;0.44238440000117407;2454
133;0.4450632999996742;2454
134;0.4482103999998799;2455
135;0.4512672000000748;2455
136;0.45419910000055097;2455
137;0.45720840000103635;2455
138;0.4601282000003266;2455
139;0.46340390000113985;2456
140;0.46641249999993306;2455
141;0.46929330000057234;2455
142;0.4723967999998422;2456
143;0.4754069000009622;2456
144;0.47812080000039714;2456
145;0.4813912999998138;2456
146;0.4844020000000455;2456
147;0.48740689999976894;2456
148;0.4904145000000426;2456
149;0.49320650000117894;2456
150;0.4964226000010967;2456
151;0.4994118000013259;2456
152;0.5024603000001662;2456
153;0.5054369000008592;2456
154;0.508356600001207;2456
155;0.5111310000011144;2456
156;0.5142378000000463;2456
157;0.5174036999997043;2456
158;0.5204525000008289;2456
159;0.5234534000010171;2456
160;0.5261855000007927;2456
161;0.5293965000000753;2456
162;0.5324128000011115;2456
163;0.5354055000007065;2456
164;0.5384508999995887;2455
165;0.5412531000001763;2455
166;0.5444966000013665;2455
167;0.5474549000009574;2455
168;0.5504252000009728;2455
169;0.5534600000009959;2455
170;0.556257899999764;2455
171;0.5594522000010329;2455
172;0.5624684000013076;2455
173;0.565460300000268;2455
174;0.5684237000004941;2455
175;0.571446100000685;2455
176;0.5744590000012977;2455
177;0.5774614000001748;2455
178;0.580418000001373;2455
179;0.5834221000004618;2455
180;0.5864508000013302;2455
181;0.5892210000001796;2455
182;0.5924671000011585;2455
183;0.5952240000005986;2454
184;0.5984563000001799;2454
185;0.6014544000008755;2454
186;0.6042226000008668;2454
187;0.607138200000918;2454
188;0.6091210000013234;2454
189;0.6109500000002299;2454
190;0.6129369999998744;2454
191;0.6148965000011231;2454
192;0.6168885999995837;2454
193;0.6189950000007229;2453
194;0.6209994000000734;2453
195;0.6229402000008122;2453
196;0.6249466999997821;2453
197;0.6269068000001425;2452
198;0.6290494000004401;2452
199;0.630974800000331;2452
200;0.633173700000043;2452
201;0.6351184000013745;2452
202;0.6371760000001814;2451
203;0.6391769000001659;2451
204;0.6411817000007431;2451
205;0.6431719000011071;2451
206;0.6449884000012389;2450
207;0.6471689999998489;2450
208;0.6491691999999603;2450
209;0.6511671000007482;2450
210;0.6531746000000567;2449
211;0.6551761000009719;2449
212;0.6571695000002364;2449
213;0.6591743000008137;2449
214;0.6609342000010656;2449
215;0.6631557000000612;2449
216;0.6651727999997092;2448
217;0.667168900001343;2448
218;0.6691719000009471;2447
219;0.671179500001017;2447
220;0.6731737999998586;2447
221;0.6751722999997583;2446
222;0.6771769000006316;2446
223;0.6791696000000229;2446
224;0.6811450000004697;2446
225;0.6841552000005322;2445
226;0.6861703000013222;2445
227;0.6881689000001643;2445
228;0.6901723999999376;2444
229;0.692175700000007;2444
230;0.6941439000001992;2444
231;0.6961654000006092;2444
232;0.6981783999999607;2443
233;0.7001729000003252;2443
234;0.702178499999718;2443
235;0.704178600000887;2443
236;0.7061712000013358;2442
237;0.7081715000003896;2442
238;0.7101746999996976;2442
239;0.7121227000006911;2441
240;0.7141492000009748;2441
241;0.7161396999999852;2441
242;0.7181491999999707;2441
243;0.7201275999996142;2441
244;0.7221316000013758;2440
245;0.7241291000009369;2440
246;0.7261314000006678;2440
247;0.7279842000007193;2440
248;0.730150200000935;2440
249;0.7321308000009594;2439
250;0.734142500001326;2439
251;0.7361245000010967;2438
252;0.738129299999855;2438
253;0.740132300001278;2438
254;0.7421210000011342;2438
255;0.7441049999997631;2437
256;0.7461534000012762;2437
257;0.7481318999998621;2437
258;0.7501389000008203;2436
259;0.7521218000001682;2436
260;0.7541247999997722;2436
261;0.7561272000002646;2435
262;0.7591963000013493;2435
263;0.7610624000008102;2435
264;0.7630468000006658;2435
265;0.7651701000013418;2434
266;0.7671191999997973;2434
267;0.769077599999946;2434
268;0.7711742000010418;2433
269;0.7731194000007235;2433
270;0.7750814000009996;2432
271;0.7771611000007397;2432
272;0.7790265000003274;2432
273;0.7811383000007481;2431
274;0.7831204000012804;2431
275;0.7850816000009218;2430
276;0.7870892000009917;2430
277;0.7891400000007707;2430
278;0.7910955999996077;2429
279;0.7940268000002106;2429
280;0.7960024000003614;2428
281;0.798210700000709;2428
282;0.7999923999996099;2427
283;0.8021306999999069;2427
284;0.8040001000008488;2427
285;0.8071710000003804;2426
286;0.8103035000003729;2426
287;0.813423800000237;2426
288;0.8164453999997932;2425
289;0.8194388000010804;2424
290;0.8224427000004653;2424
291;0.8252571000011812;2423
292;0.8281545999998343;2422
293;0.8317409999999654;2422
294;0.8344952999996167;2421
295;0.8375155000012455;2421
296;0.8405018000012205;2420
297;0.8435796000012488;2419
298;0.8464370000001509;2419
299;0.8494205999995756;2418
300;0.8524221999996371;2418
301;0.855442199999743;2417
302;0.8582533999997395;2417
303;0.861273300000903;2416
304;0.8646105999996507;2416
305;0.868677899999966;2415
306;0.8726120000010269;2414
307;0.8751917000008689;2413
308;0.8781717000001663;2412
309;0.8815586000000621;2412
310;0.884476999999606;2411
311;0.8874636000000464;2411
312;0.8904445999996824;2411
313;0.8935075999997935;2411
314;0.8964305999998032;2410
315;0.8994184000002861;2410
316;0.9024196999998821;2410
317;0.9054812000013044;2409
318;0.908278099999734;2409
319;0.9112665000011475;2409
320;0.9147475999998278;2408
321;0.9187672000007296;2408
322;0.9225306999996974;2408
323;0.9254949000005581;2408
324;0.9281554000008327;2408
325;0.9315638000007311;2407
326;0.9345504000011715;2407
327;0.9373221000005287;2407
328;0.9403968000005989;2406
329;0.9435530999999173;2406
330;0.9466535000010481;2405
331;0.9507160000011936;2405
332;0.9547232000004442;2405
333;0.9587258000010479;2404
334;0.9614144999995915;2404
335;0.9656874000011157;2404
336;0.9697235000003275;2403
337;0.9737333000011859;2403
338;0.9777656000005663;2402
339;0.9806160999996791;2402
340;0.9836381000004621;2402
341;0.986475400000927;2402
342;0.9894373000006453;2402
343;0.9921458000007988;2401
344;0.9951061000010668;2401
345;0.9983850000007806;2401
346;1.0013947999996162;2400
347;1.0044305999999779;2400
348;1.0069899999998597;2400
349;1.0104188000004797;2399
350;1.0134108000002016;2400
351;1.0164208000005601;2400
352;1.0194222000009177;2400
353;1.0224157000011473;2399
354;1.0251029000010021;2399
355;1.0274368000009417;2399
356;1.0304341999999451;2399
357;1.033435000001191;2399
358;1.0364217000005738;2399
359;1.0393440999996528;2398
360;1.0424257000013313;2398
361;1.0453014000013354;2398
362;1.0484162000011565;2398
363;1.05141999999978;2398
364;1.054336200000762;2397
365;1.0574033000011696;2397
366;1.0604101000008086;2397
367;1.0634320999997726;2396
368;1.0664049000006344;2396
369;1.0694172000003164;2396
370;1.0724090000003343;2396
371;1.0754121000009036;2396
372;1.0781377000002976;2396
373;1.0814182000012806;2396
374;1.0844058000002406;2397
375;1.0871812000004866;2397
376;1.0902070000011008;2397
377;1.0931891000000178;2397
378;1.0961888000001636;2397
379;1.0981525999995938;2397
380;1.1001407000003383;2397
381;1.102187700000286;2397
382;1.1041695000003529;2397
383;1.106459200000245;2397
384;1.1094718000003922;2398
385;1.1124657000000298;2398
386;1.115450299999793;2397
387;1.118089499999769;2398
388;1.1214400000008027;2398
389;1.1244466000007378;2398
390;1.1274771999997029;2399
391;1.130466599999636;2399
392;1.133127200000672;2399
393;1.1364376000001357;2399
394;1.1394035000012082;2400
395;1.1424211000012292;2400
396;1.145263000000341;2400
397;1.1482968000000255;2400
398;1.151339400001234;2400
399;1.1544107999998232;2400
400;1.1574047000012797;2400
401;1.1604015000011714;2400
402;1.1632213000011689;2400
403;1.1663466000009066;2401
404;1.169321100000161;2401
405;1.172408100001121;2401
406;1.1753494000004139;2401
407;1.1781760000012582;2401
408;1.181427600000461;2401
409;1.1844106000007741;2402
410;1.1872663000012835;2402
411;1.1904278000001796;2402
412;1.1934063000007882;2403
413;1.1964485000007699;2403
414;1.199417200001335;2403
415;1.2024371000006795;2403
416;1.2054026000005251;2404
417;1.2084113000000798;2404
418;1.2111913000007917;2404
419;1.2142753999996785;2405
420;1.2174290000002657;2405
421;1.2204287000004115;2405
422;1.2234351000006427;2406
423;1.2263636000006954;2406
424;1.2294163000005938;2406
425;1.2324040000003151;2407
426;1.2354105000013078;2407
427;1.2384307000011177;2408
428;1.2414046000012604;2408
429;1.2441030999998475;2408
430;1.2474140000012994;2409
431;1.2504441000000952;2409
432;1.253450400001384;2410
433;1.2564404000004288;2410
434;1.2594050000006973;2410
435;1.2624429000006785;2410
436;1.2654328000007808;2410
437;1.2684277000007569;2411
438;1.271448200001032;2411
439;1.274230400000306;2411
440;1.2774262000002636;2412
441;1.2804541000004974;2413
442;1.2832619000000705;2413
443;1.286251600000469;2413
444;1.2891919000012422;2413
445;1.2922089000003325;2414
446;1.295177900001363;2414
447;1.2982893999997032;2415
448;1.3013045000006969;2415
449;1.3043084000000817;2416
450;1.3072984000009455;2416
451;1.310269600000538;2417
452;1.3134428000012122;2417
453;1.3164366000000882;2417
454;1.3194371000008687;2418
455;1.3224143000006734;2418
456;1.3254355999997642;2418
457;1.328308800000741;2419
458;1.3311890000004496;2419
459;1.334220099999584;2420
460;1.3372243000012531;2420
461;1.3402720000012778;2420
462;1.3437797000005958;2421
463;1.3478584000004048;2421
464;1.3518344000003708;2422
465;1.3558291999997891;2422
466;1.359819700001026;2423
467;1.36370050000005;2423
468;1.3677698999999848;2424
469;1.371766899999784;2425
470;1.3744961000011244;2426
471;1.377158799999961;2426
472;1.3801928000011685;2426
473;1.3837510000012117;2427
474;1.3864869000008184;2428
475;1.3894813000006252;2428
476;1.3926828000003297;2429
477;1.3967530000008992;2430
478;1.4007650000003196;2431
479;1.4047327999996924;2431
480;1.4087263000001258;2432
481;1.4126794000003429;2433
482;1.4167586000003212;2433
483;1.4207413000003726;2434
484;1.424696699999913;2435
485;1.4282968999996228;2435
486;1.431592000000819;2436
487;1.4355948000011267;2436
488;1.4395856000010099;2437
489;1.4427090999997745;2438
490;1.4466935000000376;2438
491;1.4507535000011558;2439
492;1.4535267000010208;2440
493;1.4577681999999186;2440
494;1.4613004000002547;2441
495;1.4641831000008096;2441
496;1.4671830000006594;2441
497;1.470197200000257;2441
498;1.4721891999997752;2442
499;1.474991900000532;2442
500;1.4779900000012276;2442
501;1.4800147000005381;2443
502;1.4821019000009983;2443
503;1.4843579000007594;2443
504;1.487244699999792;2444
505;1.4902637000013783;2445
506;1.493506000000707;2445
507;1.4968738999996276;2445
508;1.500852200000736;2446
509;1.5048399999996036;2447
510;1.5088186000011774;2447
511;1.5124960000011924;2447
512;1.5156774000006408;2448
513;1.5195748000005551;2448
514;1.5237637000009272;2449
515;1.5265421000003698;2449
516;1.5297547000009217;2449
517;1.5326412000013079;2450
518;1.5367279000001872;2450
519;1.5402260000009846;2451
520;1.5421167000004061;2451
521;1.5440482000012707;2451
522;1.5461238999996567;2452
523;1.5497116000005917;2452
524;1.5536873000000924;2453
525;1.5562088000006042;2453
526;1.559664899999916;2453
527;1.5625202000010177;2453
528;1.5656436999997823;2454
529;1.5697298000013689;2454
530;1.57270840000092;2454
531;1.5767278000002989;2455
532;1.5797001000009914;2455
533;1.583731100001387;2456
534;1.5876817000007577;2455
535;1.5906648000000132;2456
536;1.593479799999841;2456
537;1.596439000000828;2456
538;1.5994322000005923;2456
539;1.602128000000448;2456
540;1.604479600000559;2456
541;1.6074571999997715;2456
542;1.6104644999995799;2456
543;1.6134732000009535;2457
544;1.6164609000006749;2457
545;1.6194623999999749;2457
546;1.622465700000248;2457
547;1.6254569000011543;2456
548;1.6281641000005038;2457
549;1.6314571000002616;2456
550;1.6344582000001537;2457
551;1.6374601000006805;2456
552;1.640459300000657;2456
553;1.6434680000002118;2456
554;1.6464639000005263;2456
555;1.6491530000002967;2456
556;1.6524607000010292;2456
557;1.655463500001133;2456
558;1.6584540000003472;2457
559;1.6611122000012983;2457
560;1.6644253000013123;2457
561;1.6674626000003627;2457
562;1.6704578999997466;2457
563;1.67345750000095;2457
564;1.676455500000884;2457
565;1.6794608000000153;2457
566;1.682464900000923;2457
567;1.6854634000010265;2457
568;1.6884594000002835;2457
569;1.6914593000001332;2457
570;1.6942945000009786;2457
571;1.6983180999995966;2457
572;1.7014601999999286;2457
573;1.704459599999609;2457
574;1.707480500001111;2456
575;1.71044190000066;2456
576;1.7134439000001294;2456
577;1.716449300000022;2456
578;1.7190857000005053;2455
579;1.7223611999997956;2455
580;1.7253545000003214;2455
581;1.7280987000012829;2454
582;1.731450200000836;2454
583;1.7344434000006004;2454
584;1.7374557000002824;2453
585;1.7404501000000892;2453
586;1.7431923000003735;2453
587;1.7464587000013125;2452
588;1.749445999999807;2452
589;1.7524474000001646;2452
590;1.7554412999998021;2451
591;1.758435499999905;2451
592;1.7611322000011569;2450
593;1.7644417000010435;2450
594;1.7674306000008073;2450
595;1.7704474000001937;2449
596;1.7734515000011015;2449
597;1.7764480000005278;2449
598;1.779448200000843;2448
599;1.7824459000003117;2448
600;1.7854452999999921;2448
601;1.7884582000006048;2448
602;1.7914448999999877;2448
603;1.7942746999997325;2448
604;1.7974496000006184;2447
605;1.8004426999996213;2447
606;1.8033692999997584;2447
607;1.8060549000001629;2447
608;1.8094223000007332;2446
609;1.8121338000000833;2446
610;1.815147999999681;2446
611;1.8182773999997153;2445
612;1.8216310999996495;2445
613;1.8256323000005068;2444
614;1.8282392000000982;2444
615;1.8312832999999955;2444
616;1.834279400000014;2443
617;1.8372740000013437;2443
618;1.8402693000007275;2443
619;1.8432236000007833;2443
620;1.8462135999998281;2442
621;1.8494725000000471;2442
622;1.8524734000002354;2441
623;1.8554674000006344;2441
624;1.8585112000000663;2441
625;1.8612424000002648;2440
626;1.8644497000004776;2439
627;1.8674263000011706;2439
628;1.8703850000001694;2439
629;1.8734440999996878;2438
630;1.876443900000595;2438
631;1.8794874000013806;2437
632;1.8824466000005486;2437
633;1.8854411000011169;2436
634;1.8884539000009681;2436
635;1.8914495000008174;2435
636;1.8940628000000288;2435
637;1.8974431000006007;2434
638;1.9004468000002817;2434
639;1.9033123000008345;2433
640;1.9064438000004884;2432
641;1.9094431000012264;2432
642;1.912438100000145;2432
643;1.9152711000006093;2431
644;1.918450799999846;2431
645;1.9214504000010493;2430
646;1.9243339000004198;2430
647;1.9272730000011506;2429
648;1.9304222999999183;2429
649;1.933418000000529;2428
650;1.9364267000000837;2428
651;1.9397781999996369;2427
652;1.942770900001051;2426
653;1.945225900000878;2426
654;1.948450400001093;2425
655;1.951436700001068;2425
656;1.9541220999999496;2424
657;1.9572543000012956;2425
658;1.960091900000407;2424
659;1.9626418000007106;2423
660;1.966841100000238;2423
661;1.9708162000006268;2422
662;1.9747287999998662;2421
663;1.978271300000415;2421
664;1.981654900000649;2421
665;1.9857055000011314;2420
666;1.989720200001102;2419
667;1.9927606000001106;2419
668;1.996729200000118;2418
669;2.0007146000007197;2417
670;2.004718000000139;2417
671;2.0086967000006553;2416
672;2.0126932000002853;2416
673;2.0167347000005975;2415
674;2.020681900001364;2415
675;2.0236421000008704;2414
676;2.0266780000001745;2413
677;2.029731200000242;2412
678;2.033504400000311;2412
679;2.0365247999998246;2412
680;2.040217499999926;2411
681;2.0433650000013586;2411
682;2.046359500000108;2411
683;2.049430200000643;2410
684;2.0524270000005345;2410
685;2.0555323000007775;2409
686;2.0584527000009984;2409
687;2.061066899999787;2409
688;2.064302400000088;2409
689;2.0676211999998486;2408
690;2.07179780000115;2408
691;2.075795400000061;2407
692;2.0796112999996694;2406
693;2.0841438000006747;2405
694;2.0877498000008927;2405
695;2.09218250000049;2405
696;2.096753900001204;2404
697;2.1012927000010677;2404
698;2.1062314999999217;2403
699;2.111285200000566;2402
700;2.114832600000227;2402
701;2.11855099999957;2401
702;2.1213998000002903;2401
703;2.125885900000867;2400
704;2.1298561000003247;2400
705;2.1338783999999578;2400
706;2.1376882000004116;2400
707;2.1419538000009197;2399
708;2.1453629000006913;2399
709;2.1484552000001713;2399
710;2.151589500001137;2399
711;2.1545963999997184;2398
712;2.157587200001217;2398
713;2.1605827000003046;2397
714;2.1635798000006616;2397
715;2.1665983000002598;2397
716;2.1695811999998114;2397
717;2.1725920000008045;2397
