;time;amplitude
0;0.0044976999997743405;2363
1;0.007025400000202353;2363
2;0.01003599999967264;2363
3;0.013011000000915374;2363
4;0.01639410000097996;2363
5;0.020157700000709156;2362
6;0.023165399999925285;2362
7;0.027015100000426173;2362
8;0.031217699999615434;2362
9;0.035083400000075926;2362
10;0.038146500000948436;2362
11;0.04115120000096795;2362
12;0.04392840000036813;2361
13;0.046999399999549496;2361
14;0.050379500000417465;2361
15;0.05408440000064729;2361
16;0.05712889999995241;2361
17;0.06003989999953774;2361
18;0.06286779999936698;2360
19;0.06600240000079793;2360
20;0.06945600000108243;2360
21;0.07316660000105912;2360
22;0.07578300000022864;2360
23;0.07786420000047656;2360
24;0.08096440000008442;2360
25;0.08393860000069253;2360
26;0.08716740000090795;2360
27;0.09013360000062676;2360
28;0.09292219999952067;2360
29;0.09717799999998533;2360
30;0.10156470000038098;2360
31;0.10543929999948887;2360
32;0.1090120000008028;2360
33;0.11198460000014165;2360
34;0.11487230000057025;2360
35;0.11797289999958593;2360
36;0.12117340000077093;2360
37;0.12419989999943937;2360
38;0.12707510000109323;2360
39;0.12996709999970335;2360
40;0.13293979999980365;2360
41;0.13587220000044908;2360
42;0.13903969999955734;2360
43;0.14201450000109617;2360
44;0.14493249999941327;2360
45;0.14808439999978873;2360
46;0.15112869999938994;2360
47;0.15404710000075283;2360
48;0.15688940000109142;2360
49;0.16032350000023143;2360
50;0.1626632999996218;2360
51;0.1647804999993241;2360
52;0.16785780000100203;2360
53;0.17078720000063186;2360
54;0.17286450000028708;2359
55;0.17574520000016491;2359
56;0.17887700000028417;2359
57;0.18231360000027053;2359
58;0.18523500000083004;2359
59;0.18818240000109654;2359
60;0.1908435000004829;2359
61;0.19379040000058012;2359
62;0.1960371999994095;2359
63;0.1990115999997215;2359
64;0.20181770000090182;2359
65;0.2048119000010047;2358
66;0.20797339999990072;2359
67;0.2107852000008279;2358
68;0.2128845999995974;2358
69;0.21596920000047248;2358
70;0.21884200000022247;2358
71;0.22189849999995204;2358
72;0.22475739999936195;2357
73;0.22706230000039795;2357
74;0.23034740000002785;2357
75;0.23307960000056482;2357
76;0.2360121000001527;2357
77;0.23880629999985103;2357
78;0.24186680000093475;2357
79;0.24477570000090054;2356
80;0.24797559999933583;2356
81;0.2509200000004057;2356
82;0.254012800000055;2357
83;0.2569868000009592;2357
84;0.2596988000004785;2357
85;0.26315819999945234;2357
86;0.26591220000045723;2356
87;0.269233200000599;2356
88;0.2718182999997225;2356
89;0.273835500000132;2357
90;0.27565880000111065;2357
91;0.27774049999970885;2357
92;0.28125460000046587;2356
93;0.2842657000001054;2357
94;0.28697359999932814;2356
95;0.28986170000098355;2356
96;0.29294909999953234;2357
97;0.2957368999996106;2357
98;0.29884540000057314;2357
99;0.30081910000080825;2358
100;0.3038938000008784;2357
101;0.3058137000007264;2357
102;0.30885850000049686;2357
103;0.3118410999995831;2357
104;0.31377969999994093;2357
105;0.31689430000005814;2357
106;0.3197736000001896;2357
107;0.32269819999964966;2357
108;0.3248908000005031;2357
109;0.32767729999977746;2357
110;0.33023080000020855;2357
111;0.3331705000000511;2357
112;0.3371762000006129;2357
113;0.34006810000028054;2357
114;0.342941000000792;2357
115;0.3459688000002643;2357
116;0.3488997999993444;2357
117;0.35185699999965436;2357
118;0.35469650000050024;2357
119;0.3567624999996042;2357
120;0.36012880000089353;2357
121;0.36287930000071356;2357
122;0.36632900000040536;2357
123;0.368976499999917;2356
124;0.37184999999954016;2356
125;0.3739917000002606;2356
126;0.3767645000007178;2356
127;0.37990960000024643;2356
128;0.3833293000006961;2357
129;0.38597979999940435;2357
130;0.38880710000012186;2356
131;0.39196179999999003;2356
132;0.39486679999936314;2356
133;0.3978645000006509;2356
134;0.40105229999971925;2356
135;0.40406050000092364;2356
136;0.4070635999996739;2356
137;0.4100324000010005;2356
138;0.41303719999996247;2356
139;0.4158489000001282;2356
140;0.4192370000000665;2356
141;0.4218237000004592;2356
142;0.42503260000012233;2356
143;0.4277942000007897;2356
144;0.4301561000011134;2356
145;0.43303390000073705;2356
146;0.4358252000001812;2356
147;0.4388219000011304;2356
148;0.44199359999947774;2356
149;0.4448879000010493;2356
150;0.44824569999946107;2356
151;0.45098999999936495;2356
152;0.453960000000734;2356
153;0.45691590000024007;2356
154;0.46005239999976766;2356
155;0.4628307000002678;2356
156;0.46592340000097465;2356
157;0.46890979999989213;2357
158;0.47192700000050536;2357
159;0.4750076000000263;2356
160;0.47795510000105423;2357
161;0.48095590000048105;2357
162;0.48387630000070203;2357
163;0.4868662000008044;2356
164;0.4899598000010883;2356
165;0.49304380000103265;2356
166;0.49584649999997055;2356
167;0.49887280000075407;2356
168;0.5019140999993397;2356
169;0.5050583000011102;2356
170;0.50798659999964;2357
171;0.5108653000006598;2357
172;0.5140198999997665;2357
173;0.5169483999998192;2357
174;0.5200375000003987;2357
175;0.5230181000006269;2357
176;0.525875499999529;2357
177;0.5290499000002455;2357
178;0.5321091999994678;2357
179;0.5349781999993866;2357
180;0.5378309999996418;2357
181;0.5410257000003185;2357
182;0.5439375999994809;2357
183;0.5469398999994155;2357
184;0.5499541000008321;2357
185;0.5530687999998918;2357
186;0.5559783000007883;2357
187;0.5589710999993258;2357
188;0.56215820000034;2357
189;0.5650470000000496;2357
190;0.5680080000001908;2357
191;0.5709872000006726;2357
192;0.5742604000006395;2357
193;0.5782204999995884;2357
194;0.5826914999997825;2357
195;0.5874101999997947;2356
196;0.5918020000008255;2357
197;0.5960893000010401;2356
198;0.6001983999994991;2356
199;0.6033702000004268;2356
200;0.6071592999996938;2356
201;0.6100122999996529;2357
202;0.6129980999994586;2357
203;0.616260599999805;2357
204;0.6190157000000909;2356
205;0.6220253999999841;2356
206;0.6249487999994017;2357
207;0.6278760000004695;2357
208;0.6309572999998636;2357
209;0.6340963000002375;2357
210;0.6368689999999333;2357
211;0.6400439999997616;2357
212;0.6428928999994241;2357
213;0.6458043000002363;2357
214;0.6478939999997237;2357
215;0.6508979999998701;2357
216;0.6528844000004028;2357
217;0.6548763000009785;2357
218;0.6578822999999829;2357
219;0.6608114000009664;2357
220;0.6629057000009198;2357
221;0.6658511000005092;2357
222;0.6689834999997402;2357
223;0.6719296000010218;2356
224;0.6749476000004506;2356
225;0.6779477000000043;2356
226;0.6811907000010251;2356
227;0.6842102000009618;2356
228;0.6870113000004494;2356
229;0.6900167000003421;2356
230;0.6929677000007359;2356
231;0.6958558999995148;2356
232;0.6989709000008588;2356
233;0.7018188000001828;2356
234;0.7049991000003502;2355
235;0.7079331999993883;2356
236;0.7113327999995818;2356
237;0.71493510000073;2356
238;0.7179928999994445;2356
239;0.7209559000002628;2356
240;0.7240333000008832;2356
241;0.7273223000011058;2356
242;0.7297450999994908;2356
243;0.7329365000005055;2356
244;0.7356832999994367;2356
245;0.7378884999998263;2356
246;0.7407829000003403;2356
247;0.7438832000007096;2356
248;0.7469837999997253;2357
249;0.7498570999996446;2357
250;0.7529586000000563;2357
251;0.7559486000009201;2357
252;0.7589141000007658;2357
253;0.7619806000002427;2357
254;0.763757099999566;2357
255;0.7669019999993907;2357
256;0.7697160000006988;2358
257;0.77291409999998;2358
258;0.7757770999996865;2358
259;0.7780519000007189;2358
260;0.7809634000004735;2357
261;0.7838518999997177;2357
262;0.7859996000006504;2357
263;0.7889470000009169;2357
264;0.7918840000002092;2357
265;0.7939461000005394;2357
266;0.7968526999993628;2357
267;0.7990282000009756;2357
268;0.8019311999996717;2357
269;0.8048257999998896;2357
270;0.8079459000000497;2358
271;0.8096457999999984;2357
272;0.8117044999999052;2357
273;0.814962899999955;2357
274;0.8177501000009215;2357
275;0.8198530999998184;2357
276;0.8218467000006058;2357
277;0.8238639999999577;2357
278;0.825752900000225;2357
279;0.8277496000009705;2357
280;0.830757600000652;2357
281;0.8328559000001405;2357
282;0.8362569000000803;2357
283;0.8405383000008442;2357
284;0.8454362000011315;2357
285;0.8493020000005345;2357
286;0.853269299999738;2357
287;0.857097199999771;2358
288;0.8609520999998495;2357
289;0.864004200000636;2357
290;0.8667703000010079;2358
291;0.8699042000007466;2358
292;0.8728928000000451;2358
293;0.8760652000000846;2358
294;0.8789820000001782;2358
295;0.8822371999995084;2358
296;0.8851188999997248;2358
297;0.8883315000002767;2358
298;0.8912118999996892;2358
299;0.8937688000005437;2358
300;0.8971823000010772;2358
301;0.9003319000003103;2358
302;0.9032621999995172;2358
303;0.9062309000000823;2358
304;0.9088558000003104;2358
305;0.9112533999996231;2357
306;0.9137798000010662;2358
307;0.9169629000007262;2357
308;0.9199785000000702;2357
309;0.922990099999879;2357
310;0.9257673000010982;2357
311;0.9289910999996209;2357
312;0.9319651000005251;2357
313;0.9349748000004183;2357
314;0.9380092999999761;2357
315;0.9407544000005146;2357
316;0.9440432000010333;2357
317;0.9471276999993279;2357
318;0.9499341000009736;2357
319;0.9529370000000199;2357
320;0.9559810000009747;2356
321;0.9587702999997418;2356
322;0.9609696999996231;2356
323;0.9639133000000584;2356
324;0.9669699999994918;2357
325;0.9700694000002841;2357
326;0.9729492000005848;2356
327;0.9758050000000367;2356
328;0.9777699000005668;2356
329;0.9799345999999787;2356
330;0.9828775999994832;2356
331;0.9859221999995498;2356
332;0.988993400000254;2356
333;0.9919423999999708;2356
334;0.9948471000006975;2356
335;0.997945900000559;2356
336;1.000913899999432;2356
337;1.0029374000005191;2356
338;1.0059605999995256;2356
339;1.0086568000006082;2356
340;1.0107881000003545;2356
341;1.0129613000008248;2356
342;1.016056700000263;2356
343;1.0189494000005652;2356
344;1.022134200000437;2356
345;1.024958300000435;2356
346;1.0278054999998858;2356
347;1.0298022000006313;2357
348;1.0318607000008342;2357
349;1.033803700000135;2357
350;1.0359373000010237;2357
351;1.039138300000559;2356
352;1.0429598000009719;2356
353;1.0457984000004217;2357
354;1.047994500000641;2357
355;1.0506678000001557;2356
356;1.0528862999999546;2356
357;1.0561025000006339;2356
358;1.0590933000003133;2356
359;1.0619846000008692;2356
360;1.065066900000602;2355
361;1.0679734999994253;2356
362;1.0710144999993645;2356
363;1.0740598000011232;2356
364;1.0768361000009463;2356
365;1.0801596000001155;2356
366;1.083171800000855;2356
367;1.0862539999998262;2355
368;1.0891998999995849;2356
369;1.0918966000008368;2356
370;1.0948349999998754;2355
371;1.097762800000055;2355
372;1.099872900000264;2356
373;1.1028306000007433;2355
374;1.1058690999998362;2355
375;1.1087724000008166;2356
376;1.1110007999996014;2356
377;1.1139598000008846;2356
378;1.116930300000604;2356
379;1.1189642999997886;2356
380;1.1218129999997473;2356
381;1.1248180000002321;2356
382;1.1267781000005925;2356
383;1.1299490000001242;2357
384;1.1328413999999611;2357
385;1.1359812000009697;2357
386;1.138865099999748;2357
387;1.1419232999996893;2357
388;1.1450579000011203;2357
389;1.14788260000023;2357
390;1.1508546000004571;2357
391;1.152785700000095;2357
392;1.1560184999998455;2357
393;1.158678300000247;2357
394;1.1610128000011173;2357
395;1.163928300000407;2357
396;1.1670254000000568;2357
397;1.1699048999998922;2357
398;1.1729266000002099;2357
399;1.1748709000003146;2357
400;1.1767199000005348;2357
401;1.1788599000010436;2357
402;1.18098529999952;2357
403;1.1840327000008983;2357
404;1.1869564999997237;2357
405;1.1899341999996977;2357
406;1.1927405999995244;2356
407;1.1951196000009077;2357
408;1.197907400000986;2357
409;1.2009244000000763;2357
410;1.2039889999996376;2357
411;1.2067256000009365;2357
412;1.2089661000009073;2357
413;1.2118998000005377;2357
414;1.214851799999451;2357
415;1.2178595999994286;2357
416;1.2208960999996634;2357
417;1.2238959999995132;2357
418;1.2267482999995991;2357
419;1.2298614000010275;2357
420;1.2329478000010567;2357
421;1.2360907000002044;2357
422;1.2391846000009537;2357
423;1.2419819999995525;2357
424;1.2453160999993997;2357
425;1.2492922000001272;2357
426;1.2520586999999068;2357
427;1.2551693999994313;2357
428;1.2578885000002629;2357
429;1.260895299999902;2357
430;1.2640143999997235;2357
431;1.2669655999998213;2357
432;1.270127899999352;2357
433;1.2728968000010354;2357
434;1.2757798000002367;2357
435;1.2789819999998144;2357
436;1.2819992999993701;2356
437;1.2849774999995134;2356
438;1.2879855000010139;2357
439;1.2910174999997253;2357
440;1.2940144000003784;2357
441;1.2971410999998625;2357
442;1.3000219000005018;2356
443;1.3031243000004906;2357
444;1.305984399999943;2357
445;1.308748800000103;2357
446;1.311925899999551;2357
447;1.3149671999999555;2357
448;1.3180974000006245;2357
449;1.3207746999996743;2357
450;1.3227089000010892;2357
451;1.324644199999966;2357
452;1.3268363000006502;2357
453;1.328756599999906;2357
454;1.330629800000679;2357
455;1.3326675000007526;2357
456;1.3348095000001194;2357
457;1.336762799999633;2357
458;1.3388193999999203;2357
459;1.340748300000996;2357
460;1.342779700000392;2357
461;1.3447414000002027;2357
462;1.3466511999995419;2357
463;1.3487370000002556;2357
464;1.350771800000075;2357
465;1.3529311000002053;2357
466;1.3559679000009055;2357
467;1.3577848999993876;2358
468;1.3598177000003489;2358
469;1.361729899999773;2358
470;1.3636929000003875;2358
471;1.3657242999997834;2358
472;1.3678598000005877;2358
473;1.3696744999997463;2358
474;1.3718098000008467;2358
475;1.3737617999995564;2358
476;1.3756910000010976;2358
477;1.377734400000918;2358
478;1.3797766999996384;2358
479;1.3817412000007607;2358
480;1.3837745000000723;2358
481;1.3857434000001376;2358
482;1.3877078000004985;2358
483;1.3896722000008594;2358
484;1.3916716000003362;2358
485;1.3937384000000748;2358
486;1.3958222000001115;2358
487;1.397662900000796;2358
488;1.3997694000008778;2358
489;1.4017786999993405;2358
490;1.403739700001097;2358
491;1.4057685999996465;2358
492;1.4077347000002192;2358
493;1.4097548999998253;2358
494;1.4117492999994283;2358
495;1.4137903999999253;2358
496;1.4157049000004918;2358
497;1.4176784999999654;2358
498;1.4197067999994033;2358
499;1.421766999999818;2358
500;1.4248270000007324;2358
501;1.4268157000005885;2358
502;1.429925300000832;2358
503;1.4329741000001377;2357
504;1.4359770999999455;2358
505;1.4389664000009361;2357
506;1.4418363999993744;2357
507;1.4439392000003863;2358
508;1.4469453000001522;2358
509;1.4499574000001303;2357
510;1.4529794999998558;2357
511;1.4557524000010744;2358
512;1.4580155000003288;2358
513;1.4599343000008957;2358
514;1.4629287000007025;2358
515;1.46586440000101;2358
516;1.4689558999998553;2358
517;1.4719574000009743;2358
518;1.4747716000001674;2359
519;1.476975499999753;2359
520;1.4799755000003643;2358
521;1.482949600000211;2359
522;1.4861553000009735;2359
523;1.4889898000001267;2359
524;1.492745499999728;2359
525;1.4949766000008822;2359
526;1.496963900000992;2359
527;1.4998154999993858;2360
528;1.5029162999999244;2360
529;1.5058910999996442;2360
530;1.508675500001118;2360
531;1.5109615000001213;2360
532;1.5138177999997424;2360
533;1.5160171000006812;2360
534;1.518942500000776;2360
535;1.521717499999795;2361
536;1.523923200000354;2361
537;1.5269174000004568;2361
538;1.5299847999995109;2361
539;1.532921100000749;2361
540;1.534979199999725;2361
541;1.5378930000006221;2362
542;1.5400071000003663;2361
543;1.5427915000000212;2361
544;1.5458686000001762;2361
545;1.54881960000057;2361
546;1.5519946000003983;2361
547;1.5550462999999581;2362
548;1.557950800000981;2362
549;1.5610465999998269;2362
550;1.5638263000000734;2362
551;1.566818900000726;2362
552;1.5686851999998908;2362
553;1.5719346000005316;2362
554;1.5748232000005373;2363
555;1.5771449000003486;2363
556;1.5799698999999237;2363
557;1.5830683000003773;2363
558;1.5859872000000905;2363
559;1.5890072000001965;2363
560;1.591705799999545;2363
561;1.5937255000008008;2363
562;1.5968037000002369;2363
563;1.599879700001111;2363
564;1.6031094999998459;2363
565;1.6064304999999877;2364
566;1.609881000000314;2364
567;1.613305599999876;2364
568;1.6173830000007001;2365
569;1.621312900000703;2365
570;1.6242378999995708;2365
571;1.6282771000005596;2365
572;1.6312133000010363;2366
573;1.6342031000003772;2366
574;1.637329099999988;2366
575;1.6411903000007442;2366
576;1.643949799999973;2366
577;1.6472523000011279;2366
578;1.6498374000002514;2367
579;1.6530459999994491;2367
580;1.655956900000092;2368
581;1.658800600000177;2368
582;1.6619678999995813;2368
583;1.6651055000002088;2369
584;1.667967999999746;2370
585;1.6710046000007424;2370
586;1.6740284000006795;2370
587;1.6771903999997448;2370
588;1.6800507999996626;2369
589;1.6830286999993405;2370
590;1.6861265000006824;2370
591;1.6890318999994633;2370
592;1.6921048999993218;2371
593;1.6949972000002163;2371
594;1.6978448999998363;2371
595;1.7010052999994514;2371
596;1.7040185000005295;2371
597;1.7069547000010061;2372
598;1.7100164000003133;2372
599;1.7131520000002638;2372
600;1.7160318000005645;2372
601;1.7191507000006823;2373
602;1.7218116000003647;2373
603;1.72486630000094;2373
604;1.7271373000003223;2373
605;1.7300216000003275;2373
606;1.7331045000009908;2374
607;1.7360035000001517;2374
608;1.7388283000000229;2374
609;1.7420720000009169;2374
610;1.7447922000010294;2375
611;1.747833499999615;2375
612;1.7508163000002241;2375
613;1.752823900000294;2376
614;1.7558862999994744;2376
615;1.7587755999993533;2376
616;1.7611070000002655;2377
617;1.7639856999994663;2377
618;1.766919900001085;2377
619;1.7687093999993522;2378
620;1.7709333000002516;2378
621;1.7737701000005472;2378
622;1.7757940000010421;2378
623;1.779118099999323;2378
624;1.7833162000006268;2379
625;1.7869174000006751;2379
626;1.7901025000010122;2379
627;1.7927763999996387;2380
628;1.795978100000866;2380
629;1.7989830000005895;2380
630;1.8020976999996492;2381
631;1.8049520000004122;2381
632;1.808108400000492;2381
633;1.8111033999994106;2382
634;1.8142647000004217;2382
635;1.818017100000361;2383
636;1.8220144000006258;2383
637;1.8248512999998638;2384
638;1.827387200000885;2384
639;1.8309767999999167;2385
640;1.8344675000007555;2385
641;1.8382495000005292;2386
642;1.8408288999999058;2386
643;1.8453251000009914;2387
644;1.8483064000010927;2387
645;1.8512580999995407;2388
646;1.8544306000003417;2389
647;1.858229499999652;2389
648;1.86117060000106;2389
649;1.8640319000005547;2390
650;1.866994899999554;2390
651;1.870123099999546;2391
652;1.8730455999993865;2391
653;1.875817800000732;2392
654;1.8790339000006497;2392
655;1.88174059999983;2392
656;1.883714499999769;2392
657;1.8858952000009594;2393
658;1.888751599999523;2393
659;1.891093100000944;2393
660;1.8939255000004778;2394
661;1.8971142999998847;2394
662;1.8999557999995886;2394
663;1.9027710000009392;2395
664;1.9059508999998798;2395
665;1.9088231999994605;2395
666;1.9111093000010442;2396
667;1.913895699999557;2396
668;1.916768500001126;2396
669;1.9188348000006954;2397
670;1.9219339000010223;2397
671;1.9247443999993266;2398
672;1.9267447000001994;2398
673;1.9288789000001998;2399
674;1.9310996999993222;2399
675;1.9340226000003895;2400
676;1.9367617000007158;2400
677;1.9399544000007154;2401
678;1.9430695000010019;2401
679;1.9458451999998942;2402
680;1.9488550999994914;2402
681;1.9507673999996769;2403
682;1.952959300000657;2403
683;1.9558161000004475;2404
684;1.9577604000005522;2404
685;1.9597298999997292;2404
686;1.9618814999994356;2405
687;1.9648782000003848;2406
688;1.9678963000005751;2406
689;1.970030599999518;2407
690;1.973505699999805;2408
691;1.9773113999999623;2408
692;1.98008850000042;2409
693;1.9832507999999507;2410
694;1.9864102000010462;2410
695;1.9892534999999043;2411
696;1.9928586999994877;2412
697;1.9959586000004492;2412
698;1.9987947000008717;2413
699;2.0009798999999475;2413
700;2.0040017000010266;2413
701;2.0070570000007137;2414
702;2.0101374000005308;2415
703;2.012870500000645;2415
704;2.01476730000104;2416
705;2.0181160000011005;2417
706;2.0210134999997535;2417
707;2.0240229000010004;2417
708;2.026835500000743;2418
709;2.0300124999994296;2418
710;2.032823699999426;2419
711;2.0359284000005573;2420
712;2.0378973000006226;2420
713;2.0397697999997035;2421
714;2.042875400000412;2421
715;2.045670200001041;2421
716;2.0478633000002446;2422
