;time;amplitude
0;0.005072699999800534;2448
1;0.00951840000016091;2447
2;0.015129200000956189;2447
3;0.01966520000132732;2446
4;0.02439550000053714;2445
5;0.028363999999783118;2445
6;0.0326284000002488;2445
7;0.03663140000026033;2444
8;0.040031600001384504;2443
9;0.04307090000111202;2443
10;0.046264300000984804;2442
11;0.049051400001189904;2442
12;0.05224210000051244;2441
13;0.05527290000100038;2441
14;0.05802690000018629;2441
15;0.06137010000020382;2440
16;0.06539770000017597;2440
17;0.06908649999968475;2439
18;0.07347040000058769;2439
19;0.07741669999995793;2438
20;0.08032389999971201;2438
21;0.08440859999973327;2438
22;0.08805440000105591;2437
23;0.09100620000026538;2437
24;0.09435149999990244;2436
25;0.09814360000018496;2436
26;0.10099740000077873;2436
27;0.10446290000072622;2435
28;0.10847850000027393;2435
29;0.11243840000133787;2434
30;0.1165352999996685;2434
31;0.12046190000000934;2433
32;0.1239488999999594;2433
33;0.12748540000029607;2433
34;0.13147440000102506;2432
35;0.13541820000136795;2431
36;0.13899310000124387;2430
37;0.14213460000064515;2430
38;0.14541989999997895;2429
39;0.14917919999970763;2429
40;0.15221070000006875;2428
41;0.1550561000003654;2428
42;0.15796899999986636;2427
43;0.16126660000008997;2427
44;0.16410780000114755;2427
45;0.16713800000070478;2426
46;0.1699071000002732;2426
47;0.17288750000079744;2425
48;0.17591600000014296;2424
49;0.17899580000084825;2424
50;0.18235790000107954;2423
51;0.18519360000027518;2423
52;0.1881068000002415;2423
53;0.19120720000137226;2422
54;0.19385370000054536;2422
55;0.19703670000126294;2421
56;0.20021600000109174;2421
57;0.20311860000037996;2420
58;0.2060741000004782;2420
59;0.20887300000140385;2419
60;0.2121697000002314;2419
61;0.21513000000049942;2419
62;0.21790780000083032;2418
63;0.22088080000139598;2418
64;0.22383780000018305;2417
65;0.22705110000060813;2417
66;0.2301127999999153;2416
67;0.23307670000031067;2416
68;0.23619070000131615;2415
69;0.2390728999998828;2415
70;0.2420854000010877;2414
71;0.2449004000009154;2414
72;0.247892999999749;2414
73;0.2502168000009988;2413
74;0.25274590000117314;2413
75;0.254869399999734;2413
76;0.2567863000003854;2412
77;0.25879859999986365;2412
78;0.26094340000054217;2412
79;0.2629274999999325;2411
80;0.2659499000001233;2411
81;0.2677858000006381;2410
82;0.2700248000001011;2410
83;0.27296879999994417;2410
84;0.27600900000106776;2409
85;0.27998420000039914;2409
86;0.2830145000007178;2409
87;0.2859270999997534;2408
88;0.2878928000009182;2408
89;0.29076050000003306;2408
90;0.29284350000125414;2407
91;0.2947381000012683;2407
92;0.29694740000013553;2407
93;0.29997569999977713;2407
94;0.3030154999996739;2406
95;0.30603380000138714;2406
96;0.308879899999738;2406
97;0.3117597000000387;2405
98;0.3139995000001363;2405
99;0.31682440000076895;2405
100;0.3189536000008957;2405
101;0.32208340000033786;2405
102;0.32486550000066927;2404
103;0.32682350000141014;2404
104;0.3287255000013829;2404
105;0.3308845999999903;2404
106;0.3339594999997644;2404
107;0.33710550000068906;2403
108;0.3397844000010082;2403
109;0.34184340000138036;2403
110;0.3437485000013112;2403
111;0.34684680000100343;2403
112;0.3487529000012728;2403
113;0.3508808000005956;2402
114;0.35292430000117747;2402
115;0.35485030000018014;2402
116;0.35784680000142544;2402
117;0.36077020000084303;2402
118;0.36299160000089614;2401
119;0.36597940000137896;2401
120;0.368798000001334;2401
121;0.3719762000000628;2401
122;0.37517190000107803;2401
123;0.37778910000088217;2401
124;0.3809744000009232;2401
125;0.3841386000003695;2401
126;0.38699799999994866;2400
127;0.38990300000114075;2400
128;0.39227110000138055;2400
129;0.3947163000011642;2400
130;0.39691820000007283;2400
131;0.3988160000008065;2400
132;0.40067980000094394;2400
133;0.4028293000010308;2400
134;0.4049150999999256;2400
135;0.4079148000000714;2400
136;0.41078550000020186;2400
137;0.4138122000003932;2400
138;0.4168910999997024;2400
139;0.42005280000012135;2400
140;0.42298099999970873;2400
141;0.42576280000139377;2400
142;0.42877450000014505;2401
143;0.4322302000000491;2400
144;0.4353633999999147;2400
145;0.4392232000009244;2400
146;0.44210259999999835;2400
147;0.4447001000007731;2400
148;0.4468398999997589;2400
149;0.45039160000123957;2401
150;0.453268900000694;2401
151;0.4559138000004168;2401
152;0.4577640000006795;2401
153;0.4610437000010279;2401
154;0.4639175000011164;2401
155;0.46713910000107717;2401
156;0.4711626000007527;2401
157;0.47390439999981027;2401
158;0.47685269999965385;2401
159;0.47886730000027455;2401
160;0.4820240000008198;2401
161;0.4851312999999209;2401
162;0.48811730000124953;2402
163;0.491926800001238;2402
164;0.49485360000107903;2402
165;0.4971359000010125;2402
166;0.4998683000012534;2402
167;0.5020378999997774;2402
168;0.5049202000009245;2403
169;0.5077993000013521;2403
170;0.510931900000287;2403
171;0.513162100000045;2403
172;0.5169763000012608;2403
173;0.5202472000000853;2404
174;0.5228387000006478;2404
175;0.524837099999786;2404
176;0.5278577999997651;2404
177;0.530907100001059;2404
178;0.533665300001303;2405
179;0.5360097000011592;2405
180;0.5391457000005175;2405
181;0.5420525000008638;2405
182;0.544799299999795;2406
183;0.5480017000008957;2406
184;0.5509643000004871;2406
185;0.5527889000004507;2406
186;0.5548912000012933;2406
187;0.5567876000004617;2406
188;0.5588336000000709;2406
189;0.5617827000005491;2407
190;0.5649580000008427;2407
191;0.5678309000013542;2407
192;0.57117240000116;2408
193;0.5737410000001546;2408
194;0.5759527000009257;2408
195;0.5777343000008841;2408
196;0.5799848000006023;2409
197;0.5829204000001482;2409
198;0.5860257000003912;2409
199;0.5890553999997792;2410
200;0.5918999000004987;2410
201;0.5949613000011595;2410
202;0.5970799000006082;2411
203;0.6003743000001123;2411
204;0.6030446000004304;2411
205;0.6059569000008196;2412
206;0.6078211000003648;2412
207;0.6107607000012649;2413
208;0.6131294000006164;2413
209;0.615835500000685;2413
210;0.6180039000009856;2413
211;0.6208086000006006;2414
212;0.6227474000006623;2414
213;0.6247769000001426;2415
214;0.6277714000007109;2415
215;0.6310114000007161;2416
216;0.6338609000013093;2416
217;0.6358943000013824;2417
218;0.6388225000009697;2417
219;0.6409008000009635;2417
220;0.6432362000014109;2418
221;0.6458884000003309;2418
222;0.6477792000005138;2418
223;0.6509817000005569;2418
224;0.6539271000001463;2419
225;0.6572099000004528;2419
226;0.660200000000259;2420
227;0.6630971000013233;2420
228;0.667287899999792;2421
229;0.6702885000013339;2421
230;0.6729312000006757;2421
231;0.6760173000002396;2421
232;0.6789048000009643;2422
233;0.6824159000007057;2422
234;0.685317200001009;2423
235;0.68793370000094;2423
236;0.6908662000005279;2423
237;0.6929806000007375;2423
238;0.6962756000011723;2424
239;0.6993173000009847;2424
240;0.7023129000008339;2425
241;0.7051363000009587;2425
242;0.7079223000000638;2425
243;0.7100736000011239;2425
244;0.7132001000009041;2426
245;0.7159487999997509;2426
246;0.7178309000009904;2427
247;0.7208250000003318;2427
248;0.723834700000225;2428
249;0.7260172000005696;2428
250;0.7288523000006535;2429
251;0.7319655999999668;2429
252;0.7351491000008537;2429
253;0.7379550000005111;2430
254;0.7408554000012373;2430
255;0.7428400999997393;2430
256;0.7447824999999284;2431
257;0.74683080000068;2431
258;0.7489212000000407;2432
259;0.7508116000008158;2432
260;0.7528731000002153;2432
261;0.7547279000009439;2432
262;0.7568129000010231;2433
263;0.7588095999999496;2433
264;0.7617559000009351;2433
265;0.7639044000006834;2434
266;0.7667288000011467;2434
267;0.7689568000005238;2434
268;0.7708560000010038;2435
269;0.772874000000229;2435
270;0.7750414000001911;2435
271;0.776696400000219;2435
272;0.7790676000004169;2436
273;0.7822615000004589;2437
274;0.7849316000010731;2437
275;0.7881247000004805;2438
276;0.7908619000008912;2438
277;0.7940971000007266;2438
278;0.7973418000001402;2438
279;0.8009013000009872;2439
280;0.8043307999996614;2439
281;0.8068046000007598;2440
282;0.8090349000012793;2441
283;0.8123119000010774;2441
284;0.8149166000002879;2441
285;0.8180431000000681;2442
286;0.8210427000012714;2442
287;0.8238512999996601;2442
288;0.826939600001424;2443
289;0.829922599999918;2443
290;0.8330280000009225;2444
291;0.8359357999997883;2444
292;0.8389186000003974;2445
293;0.840790800000832;2445
294;0.8432067000012466;2445
295;0.8464257000014186;2446
296;0.849297700000534;2446
297;0.8519358000012289;2447
298;0.8549010000006092;2447
299;0.8580457999996725;2447
300;0.8611273000005895;2448
301;0.8640242000001308;2448
302;0.8668623000012303;2449
303;0.8704429999997956;2449
304;0.8744345000013709;2450
305;0.8783825999998953;2450
306;0.8825100000012753;2450
307;0.886560400000235;2450
308;0.8902926000009757;2451
309;0.8943219000011595;2451
310;0.8971749000011187;2451
311;0.9000744000004488;2451
312;0.9029460000001563;2452
313;0.9058827000008023;2452
314;0.9093797000004997;2452
315;0.9120945000013307;2452
316;0.9150675000000774;2452
317;0.9180998000010732;2452
318;0.9210573000000295;2452
319;0.9228548000010051;2453
320;0.9247919999997976;2453
321;0.9278179000011733;2453
322;0.9298632000009093;2453
323;0.9334832000004099;2453
324;0.9364342000008037;2453
325;0.9393995000009454;2453
326;0.9420734000013908;2453
327;0.9452558000011777;2453
328;0.9491567000004579;2453
329;0.952179600000818;2453
330;0.9551237000014225;2453
331;0.9579720000001544;2454
332;0.9598533999997017;2454
333;0.96175200000107;2454
334;0.9648169000010967;2454
335;0.9670081000003847;2454
336;0.9699525000014546;2454
337;0.9729318000008789;2454
338;0.9751274999998714;2454
339;0.9778218000010384;2454
340;0.9802264999998442;2454
341;0.9833531000003859;2454
342;0.9863567000011244;2454
343;0.9891734000011638;2454
344;0.991907400000855;2454
345;0.9938016000014613;2454
346;0.9959393999997701;2453
347;0.9990563999999722;2453
348;1.0019764999997278;2453
349;1.0049728000012692;2453
350;1.0079948000002332;2453
351;1.0121978000006493;2453
352;1.0149918000006437;2453
353;1.018151600001147;2453
354;1.0209969000006822;2453
355;1.0238045000005513;2453
356;1.0269398000000365;2453
357;1.0299828000006528;2453
358;1.0328545000011218;2453
359;1.035009600000194;2453
360;1.0379742000004626;2453
361;1.0397499000009702;2453
362;1.0418502000011358;2453
363;1.0437855000000127;2453
364;1.0459637000003568;2452
365;1.0489073999997345;2452
366;1.0519990000011603;2452
367;1.0549593000014283;2452
368;1.0579489000010653;2452
369;1.0606972000005044;2452
370;1.0630006000010326;2451
371;1.065899700000955;2451
372;1.0678433000011864;2451
373;1.0700169000010646;2451
374;1.0729386000002705;2450
375;1.0747953999998572;2450
376;1.0767488000001322;2450
377;1.0788640000009764;2450
378;1.0819520000004559;2449
379;1.0849611000012374;2449
380;1.0878634000000602;2449
381;1.0908076000014262;2448
382;1.093854900000224;2448
383;1.0960028000008606;2447
384;1.098917799999981;2447
385;1.101912899999661;2447
386;1.1048790000004374;2446
387;1.1079172999998264;2446
388;1.1107908000012685;2446
389;1.114245500000834;2446
390;1.116927900000519;2445
391;1.1201584999998886;2445
392;1.12336040000082;2445
393;1.1258981999999378;2445
394;1.1291612000004534;2444
395;1.1318154000000504;2444
396;1.1338513000009698;2443
397;1.135882100001254;2443
398;1.1387678000010055;2443
399;1.1408283000000665;2443
400;1.1438197000006767;2443
401;1.146077500001411;2443
402;1.1488609000007273;2442
403;1.15186630000062;2442
404;1.1550423999997292;2442
405;1.1581469000011566;2442
406;1.161202500001309;2441
407;1.1642224000006536;2441
408;1.1669517999998789;2441
409;1.1701853000013216;2440
410;1.172737099999722;2440
411;1.1748087000014493;2439
412;1.1768465000004653;2439
413;1.1788692999998602;2439
414;1.1808977000000596;2438
415;1.1828970000005938;2438
416;1.184852399999727;2438
417;1.186857400000008;2437
418;1.1888221000008343;2437
419;1.1907773000002635;2437
420;1.192824900001142;2437
421;1.194932600001266;2436
422;1.197922200000903;2435
423;1.1998206000007485;2435
424;1.2019024000001082;2435
425;1.2048964000005071;2435
426;1.2069212000005791;2434
427;1.2102547000013146;2434
428;1.2141570000003412;2433
429;1.2172000999999;2433
430;1.220148300000801;2432
431;1.2232237000007444;2432
432;1.2261752000013075;2431
433;1.2291494000000966;2431
434;1.2321467000001576;2430
435;1.2352296999997634;2430
436;1.2380401000009442;2429
437;1.2421486000002915;2429
438;1.2452301000012085;2428
439;1.2482312000011007;2428
440;1.2512237999999343;2427
441;1.2541916000009223;2427
442;1.2568573000007746;2426
443;1.2601869000009174;2425
444;1.2631888000014442;2425
445;1.2661935000014637;2424
446;1.269199500000468;2424
447;1.2721911999997246;2424
448;1.2751946999997017;2423
449;1.2781817000013689;2423
450;1.2812018000004173;2422
451;1.2841934000007313;2421
452;1.2868783000012627;2421
453;1.2887139000013121;2421
454;1.290772600001219;2420
455;1.2937343000012334;2420
456;1.2957587000000785;2420
457;1.2977143000007345;2420
458;1.299776900001234;2419
459;1.3019186000001355;2418
460;1.3048311000002286;2418
461;1.3067432000007102;2418
462;1.3088325000007899;2417
463;1.311768800000209;2417
464;1.3139374000002135;2416
465;1.3167036000013468;2416
466;1.3197008000006463;2416
467;1.3217471999996633;2415
468;1.3249814999999217;2415
469;1.3278409000013198;2415
470;1.3309380000009696;2415
471;1.3338589000013599;2414
472;1.336981399999786;2414
473;1.33894760000112;2413
474;1.3406433000000106;2413
475;1.342950700000074;2413
476;1.345911200000046;2412
477;1.3489399999998568;2412
478;1.3518626000004588;2411
479;1.3550642000009248;2411
480;1.3579460000000836;2410
481;1.3610844000013458;2410
482;1.3640589000006003;2410
483;1.3670656000012968;2410
484;1.3700929000006;2409
485;1.3730370000012044;2409
486;1.3760148000001209;2409
487;1.3790490999999747;2409
488;1.3820429000006698;2408
489;1.38505350000014;2408
490;1.3880509999999049;2408
491;1.3909703000008449;2407
492;1.3940498000010848;2407
493;1.3970762999997532;2406
494;1.4000740999999834;2406
495;1.4030189000004611;2406
496;1.4060664999997243;2406
497;1.4090644999996584;2406
498;1.4121095000009518;2406
499;1.415047800001048;2405
500;1.418077300000732;2405
501;1.4211446000008436;2405
502;1.4239069000013842;2405
503;1.4260697999998229;2405
504;1.4290772000003926;2404
505;1.4320877000009204;2404
506;1.4351879000005283;2404
507;1.4380362000010791;2403
508;1.44096669999999;2403
509;1.444126000000324;2403
510;1.447131900000386;2403
511;1.450149300000703;2403
512;1.453144400000383;2402
513;1.4560796000005212;2402
514;1.459118100001433;2401
515;1.4621045000003505;2401
516;1.4650968000005378;2402
517;1.4681207000012364;2401
518;1.470892900000763;2401
519;1.4738297000003513;2401
520;1.4771074000000226;2400
521;1.480102800000168;2400
522;1.4831062000012025;2400
523;1.4861178999999538;2401
524;1.4891136000005645;2401
525;1.4921045999999478;2400
526;1.4950891999997111;2400
527;1.4981060000009165;2400
528;1.5009016000003612;2400
529;1.5040899000014178;2400
530;1.5068681000011566;2400
531;1.5101105000012467;2400
532;1.5131073000011384;2400
533;1.516084700000647;2400
534;1.5191113000000769;2400
535;1.5221230000006472;2400
536;1.525082800000746;2399
537;1.5280989000002592;2400
538;1.531093100000362;2400
539;1.5340785999997024;2400
540;1.5370951000004425;2400
541;1.5398810000006051;2400
542;1.5431060000009893;2400
543;1.5460980000007112;2400
544;1.5490934000008565;2400
545;1.5520922000014252;2400
546;1.5551085000006424;2400
547;1.5582095000008849;2400
548;1.5612032000008185;2400
549;1.5639262000004237;2400
550;1.567184499999712;2401
551;1.570212900000115;2401
552;1.573053500000242;2401
553;1.5761980000006588;2401
554;1.57912110000143;2401
555;1.581923800000368;2401
556;1.5838859000014054;2402
557;1.587187900000572;2402
558;1.589874700001019;2402
559;1.5932026999998925;2402
560;1.595935700001064;2403
561;1.5991960000010295;2403
562;1.6021847000010894;2403
563;1.6051982000008138;2404
564;1.6082041000008758;2404
565;1.6108012000004237;2404
566;1.6141958000007435;2404
567;1.617194100001143;2405
568;1.6202229999998963;2405
569;1.623046599999725;2405
570;1.626202600000397;2405
571;1.6292146000014327;2405
572;1.63209100000131;2406
573;1.635087000000567;2406
574;1.638083200001347;2406
575;1.6411117000006925;2406
576;1.644098100001429;2407
577;1.6472348000006605;2407
578;1.6502009000014368;2408
579;1.6531709000009869;2408
580;1.6560819000005722;2408
581;1.6588769000009052;2408
582;1.6608649000008882;2409
583;1.6628312000011647;2409
584;1.6648973999999725;2409
585;1.666843200000585;2409
586;1.6697099000011804;2409
587;1.6717724999998609;2410
588;1.6749489000012545;2410
589;1.6779388000013569;2410
590;1.6816025999996782;2410
591;1.685465300000942;2411
592;1.6894379000004847;2411
593;1.6924533000001247;2411
594;1.6963716999998724;2412
595;1.6991451000012603;2412
596;1.7022378000001481;2413
597;1.7052366000007169;2413
598;1.7082605000014155;2413
599;1.711230599999908;2414
600;1.7142269000014494;2414
601;1.7172743000010087;2414
602;1.7199914000011631;2414
603;1.723042900001019;2415
604;1.7262041000012687;2415
605;1.7292035999998916;2416
606;1.732187999999951;2416
607;1.7351553000007698;2416
608;1.7381276000014623;2417
609;1.741117800000211;2418
610;1.7442127000012988;2418
611;1.747227699999712;2419
612;1.7500407000006817;2419
613;1.7532239000011032;2420
614;1.7562741000001552;2420
615;1.7592283000012685;2421
616;1.7622375000009924;2421
617;1.7652273000003333;2422
618;1.7682332000003953;2423
619;1.7712284000008367;2423
620;1.7741101999999955;2423
621;1.7772320000003674;2424
622;1.7802276000002166;2424
623;1.7831070000011096;2425
624;1.7860490000002756;2425
625;1.7889946000013879;2426
626;1.7913151000011567;2426
627;1.79452560000027;2427
628;1.798284100001183;2427
629;1.8012993000011193;2428
630;1.8042678000001615;2428
631;1.8069758000001457;2428
632;1.8102135000008275;2429
633;1.8131716000007145;2429
634;1.8161866999998892;2430
635;1.8192118000006303;2430
636;1.8222025000013673;2430
637;1.825207699999737;2430
638;1.828207200000179;2431
639;1.8312249000009615;2432
640;1.8342061000003014;2432
641;1.837208200000532;2433
642;1.8398890999997093;2433
643;1.8432124000009935;2434
644;1.8462110000000393;2435
645;1.84922060000099;2435
646;1.8522032000000763;2435
647;1.8552221999998437;2436
648;1.8582118000012997;2437
649;1.8606962000012572;2437
650;1.8628985000013927;2437
651;1.86520610000116;2437
652;1.8682246999997005;2437
653;1.8710147000001598;2438
654;1.8739332000004651;2438
655;1.876800699999876;2438
656;1.8789675000007264;2439
657;1.8820014000011724;2439
658;1.8849963000011485;2439
659;1.888600000000224;2440
660;1.8910538000000088;2441
661;1.894172800000888;2441
662;1.8981944000006479;2441
663;1.9022088000001531;2441
664;1.905188700000508;2442
665;1.9078700999998546;2442
666;1.9110335000004852;2442
667;1.9140280000010534;2443
668;1.9170809000006557;2443
669;1.9200771000014356;2443
670;1.9230578000006062;2444
671;1.9262484000009863;2444
672;1.9292480000003707;2444
673;1.932232600000134;2444
674;1.9352440000002389;2445
675;1.9382597000003443;2445
676;1.9411004000012326;2445
677;1.9442380000000412;2445
678;1.9472580000001471;2446
679;1.9502490000013495;2447
680;1.953258100000312;2447
681;1.955969599999662;2448
682;1.9578966999997647;2448
683;1.9612369000005856;2448
684;1.9642325000004348;2448
685;1.9672188000004098;2449
686;1.9702132000002166;2449
687;1.9728756000004068;2449
688;1.9762239000010595;2450
689;1.9792296000014176;2450
690;1.982244000000719;2450
691;1.9851940000007744;2450
692;1.9882171000008384;2450
693;1.991185900000346;2450
694;1.9942111000000295;2450
695;1.9972176999999647;2451
696;2.000221700000111;2451
697;2.003223600000638;2451
698;2.006164800000988;2451
699;2.0092089000008855;2451
700;2.0122150000006513;2452
701;2.015217300000586;2452
702;2.017834300000686;2452
703;2.0209829000013997;2452
704;2.0242091000000073;2452
705;2.0272258000004513;2452
706;2.0302130000000034;2452
707;2.0332132000003185;2452
708;2.036192100000335;2452
709;2.0392325000011624;2452
710;2.0422303000013926;2452
711;2.045212700000775;2453
712;2.0482135000002017;2453
713;2.0509371000007377;2453
714;2.053214999999909;2453
715;2.0562040000004345;2453
716;2.0592154000005394;2453
717;2.062213100000008;2453
