;time;amplitude
0;0.003741799999261275;2416
1;0.007856399999582209;2415
2;0.011820199999419856;2415
3;0.015863000000535976;2414
4;0.021038099999714177;2413
5;0.025585200000932673;2411
6;0.029660800000783638;2410
7;0.03400770000007469;2409
8;0.03794659999948635;2409
9;0.04195590000017546;2408
10;0.04649009999957343;2407
11;0.05104840000058175;2407
12;0.05501829999957408;2405
13;0.05899250000038592;2405
14;0.062443400000120164;2404
15;0.06564459999935934;2404
16;0.06992209999953047;2403
17;0.07502890000068874;2402
18;0.07892209999954503;2401
19;0.08254739999938465;2400
20;0.08697740000025078;2399
21;0.0905136000001221;2398
22;0.09499160000086704;2398
23;0.09844209999937448;2397
24;0.10303340000064054;2396
25;0.10778469999968365;2395
26;0.1118151000009675;2395
27;0.1157653999998729;2394
28;0.1208611000001838;2393
29;0.12517169999955513;2392
30;0.12826180000047316;2392
31;0.1311836000004405;2391
32;0.13576839999950607;2390
33;0.13970599999993283;2389
34;0.14323770000009972;2389
35;0.1461751999995613;2388
36;0.1495943999998417;2387
37;0.1537508000001253;2387
38;0.1575408000007883;2386
39;0.16016470000067784;2386
40;0.16321910000078788;2385
41;0.16666059999988647;2384
42;0.17022019999967597;2384
43;0.17367899999953806;2384
44;0.17652540000017325;2383
45;0.1801623000010295;2382
46;0.18457850000049802;2382
47;0.18860619999941264;2381
48;0.19330769999942277;2380
49;0.19732870000007097;2379
50;0.20068110000102024;2378
51;0.20471720000023197;2378
52;0.20877309999923455;2377
53;0.21233140000003914;2377
54;0.21569649999946705;2376
55;0.21971339999981865;2375
56;0.2237053000008018;2375
57;0.2276665999997931;2374
58;0.23017260000051465;2373
59;0.2347446999992826;2373
60;0.23871560000043246;2372
61;0.24262710000039078;2371
62;0.2463210000005347;2370
63;0.24969559999954072;2370
64;0.25331200000073295;2370
65;0.25620580000031623;2369
66;0.25971039999967616;2369
67;0.2632708000001003;2368
68;0.2666568999993615;2368
69;0.2701498000005813;2368
70;0.2736623000000691;2367
71;0.2777559999994992;2367
72;0.281587400000717;2366
73;0.2855402999994112;2365
74;0.2895463999993808;2365
75;0.2935505000004923;2364
76;0.2973013000009814;2363
77;0.3016834000009112;2363
78;0.30449810000027355;2362
79;0.30858380000063335;2362
80;0.3123049000005267;2361
81;0.3157355000003008;2361
82;0.31974950000039826;2360
83;0.32365129999925557;2359
84;0.32766629999969155;2359
85;0.33013670000036655;2359
86;0.33326300000044284;2358
87;0.3361261000009108;2358
88;0.33919430000059947;2357
89;0.34236840000085067;2357
90;0.34536040000057255;2357
91;0.3485118999997212;2357
92;0.3516362000009394;2356
93;0.3546604999992269;2356
94;0.35867180000059307;2355
95;0.36221199999999953;2355
96;0.3654566999994131;2354
97;0.3693497000003845;2354
98;0.3723368999999366;2354
99;0.3753286000010121;2354
100;0.37836369999968156;2353
101;0.38130610000007437;2353
102;0.38574250000056054;2353
103;0.3895243999995728;2352
104;0.3926413999997749;2352
105;0.3962799000000814;2351
106;0.39968580000095244;2351
107;0.40367130000049656;2350
108;0.40766099999927974;2350
109;0.4114781000007497;2350
110;0.4142551999993884;2349
111;0.4187364000008529;2348
112;0.4226784000002226;2347
113;0.42629739999938465;2347
114;0.43010270000013406;2346
115;0.4345950000006269;2346
116;0.43872059999921476;2345
117;0.44214970000030007;2344
118;0.44629929999973683;2344
119;0.4496691999993345;2343
120;0.45364209999934246;2343
121;0.4574276999992435;2342
122;0.4617099999995844;2342
123;0.46559159999924304;2341
124;0.4696636999997281;2340
125;0.4736713000002055;2340
126;0.4775700999998662;2340
127;0.48014080000029935;2339
128;0.4847219999992376;2339
129;0.4886810999996669;2338
130;0.4911680000004708;2338
131;0.49562820000028296;2338
132;0.498285699999542;2337
133;0.5025759000000107;2337
134;0.5067228999996587;2337
135;0.5106400000004214;2337
136;0.5142608999994991;2337
137;0.518721700000242;2336
138;0.5233079999998154;2336
139;0.5275333000008686;2336
140;0.5301978999996209;2336
141;0.5336372000001575;2336
142;0.5376952000005986;2336
143;0.5416676000004372;2336
144;0.5455708000008599;2335
145;0.5496036999993521;2335
146;0.5532032999999501;2334
147;0.5564346999999543;2334
148;0.559105800000907;2334
149;0.5619791999997688;2334
150;0.5653096999994887;2334
151;0.5681502999996155;2333
152;0.5709384000001592;2333
153;0.5730813000009221;2333
154;0.5750826999992569;2333
155;0.5770881000007648;2333
156;0.5801023999993049;2333
157;0.5829376000001503;2332
158;0.5851349999993545;2332
159;0.5881475999995018;2332
160;0.591143400000874;2332
161;0.5941476999996667;2332
162;0.5975808000002871;2332
163;0.6001080999994883;2332
164;0.6033576999998331;2331
165;0.6063121999995928;2331
166;0.6093352999996569;2331
167;0.6121689999999944;2331
168;0.6150799000006373;2331
169;0.6182556999992812;2331
170;0.6212622000002739;2331
171;0.6245758000004571;2330
172;0.6285927000008087;2330
173;0.6321525000003021;2330
174;0.6351690999999846;2329
175;0.6381748999992851;2329
176;0.6411712000008265;2330
177;0.6441709000009723;2330
178;0.6474825999994209;2330
179;0.650267499999245;2330
180;0.6532981000000291;2330
181;0.6562979999998788;2330
182;0.6593224000007467;2330
183;0.6621314999993047;2329
184;0.6654939000000013;2329
185;0.6684337999995478;2329
186;0.671426099999735;2329
187;0.6755327000009856;2329
188;0.678463100000954;2329
189;0.6814281000006304;2330
190;0.684434799999508;2330
191;0.6870431000006647;2329
192;0.690266800000245;2329
193;0.6931067000004987;2329
194;0.6959575000000768;2330
195;0.6992575000003853;2330
196;0.7024540000002162;2330
197;0.7054258999996819;2330
198;0.7082575999993423;2329
199;0.71118960000058;2330
200;0.7142497999993793;2329
201;0.7172449000008783;2329
202;0.720361600000615;2329
203;0.7233544000009715;2329
204;0.7263454999992973;2329
205;0.7289987000003748;2329
206;0.7323520999998436;2329
207;0.735321300000578;2329
208;0.7383551000002626;2329
209;0.7422203000005538;2330
210;0.7452119000008679;2330
211;0.748370999999679;2330
212;0.7514016999994055;2330
213;0.7543884000006074;2330
214;0.7570427000009659;2330
215;0.760318599999664;2330
216;0.7633246000004874;2330
217;0.7661067999997613;2330
218;0.7693519999993441;2330
219;0.7723506000002089;2331
220;0.7753800000009505;2331
221;0.7783856999994896;2331
222;0.7813728000000992;2331
223;0.7843702000009216;2331
224;0.787246399999276;2331
225;0.7899988999997731;2332
226;0.7933809000005567;2332
227;0.7962346999993315;2332
228;0.7993588000008458;2332
229;0.8022017999992386;2332
230;0.8053400999997393;2332
231;0.8083611000001838;2332
232;0.8113874000009673;2331
233;0.8143772999992507;2331
234;0.8173492000005353;2331
235;0.8203737999992882;2331
236;0.8234193999996933;2331
237;0.826377200000934;2331
238;0.8290527000008296;2331
239;0.8323756999998295;2331
240;0.8350405000001047;2331
241;0.8371053000009852;2332
242;0.8403402999992977;2332
243;0.8433198000002449;2331
244;0.8460159999995085;2331
245;0.8495610999998462;2332
246;0.8531261999996786;2331
247;0.8563235000001441;2331
248;0.8590036999994481;2331
249;0.8619436999997561;2331
250;0.8655775000006543;2331
251;0.8691947999996046;2332
252;0.8725273000000016;2331
253;0.8765079000004334;2332
254;0.8802976000006311;2332
255;0.8835634000006394;2333
256;0.8876080000009097;2333
257;0.8917653000007704;2333
258;0.8942270000006829;2333
259;0.8971992999995564;2333
260;0.900211300000592;2333
261;0.9031642999998439;2333
262;0.9061686000004556;2333
263;0.9091917000005196;2332
264;0.9120848000002297;2332
265;0.91536140000062;2332
266;0.9197679000008065;2332
267;0.9235848999996961;2333
268;0.9270090999998502;2333
269;0.9289912999993248;2333
270;0.9321646999997029;2334
271;0.9352180000005319;2333
272;0.9383605999992142;2333
273;0.9414008999992802;2333
274;0.9443795999995928;2333
275;0.9470846000003803;2333
276;0.9503662000006443;2334
277;0.9533563000004506;2333
278;0.9564157999993768;2333
279;0.9601486999999906;2334
280;0.9631681999999273;2334
281;0.966274099999282;2334
282;0.9693588000009186;2334
283;0.9723964999993768;2334
284;0.9752031999996689;2334
285;0.9782408000010037;2335
286;0.9817382000001089;2335
287;0.9856171999999788;2335
288;0.9895360000009532;2335
289;0.9925710999996227;2335
290;0.9960138999995252;2335
291;0.9993250999996235;2335
292;1.0024063000000751;2335
293;1.00511379999989;2335
294;1.008233399999881;2335
295;1.0112019000007422;2336
296;1.01408260000062;2336
297;1.0173885999993217;2336
298;1.0204341000007844;2336
299;1.023413900000378;2336
300;1.026382800000647;2336
301;1.0290798999994877;2336
302;1.032381400000304;2336
303;1.0353777000000264;2336
304;1.0383502999993652;2336
305;1.0414122000001953;2337
306;1.0441922999998496;2336
307;1.04723820000072;2336
308;1.0502548000004026;2336
309;1.0532497000003787;2336
310;1.0562358000006498;2336
311;1.0592384999999922;2336
312;1.0620656000010058;2336
313;1.0650941999992938;2336
314;1.0679827999992995;2336
315;1.0713854000005085;2337
316;1.0743973999997252;2337
317;1.0772204000004422;2337
318;1.0804033000003983;2337
319;1.0833204000009573;2337
320;1.0863871000001382;2338
321;1.089392100000623;2337
322;1.092360300001019;2338
323;1.0951970999994955;2338
324;1.0980175000004238;2338
325;1.1001396999999997;2338
326;1.103158899999471;2338
327;1.1061597000007168;2338
328;1.1097638999999617;2338
329;1.1135011000005761;2338
330;1.1165916999998444;2338
331;1.1206304999996064;2339
332;1.1246274000004632;2339
333;1.1287052000006952;2339
334;1.1321251000008488;2339
335;1.1345985000007204;2339
336;1.1384343999998237;2339
337;1.141402900000685;2339
338;1.1444102000004932;2340
339;1.147378600000593;2340
340;1.1503007999999681;2339
341;1.1534267000006366;2340
342;1.156225099999574;2340
343;1.1596595000009984;2340
344;1.1634830000002694;2340
345;1.1670028999997157;2340
346;1.1705937999995513;2340
347;1.174644000000626;2341
348;1.1781740000005811;2340
349;1.1815416999997979;2341
350;1.1844882000004873;2341
351;1.1875655000003462;2341
352;1.1916316999995615;2341
353;1.1953324000005523;2341
354;1.1985722000008536;2342
355;1.2024201999993238;2342
356;1.2055729999992764;2342
357;1.2095594000002166;2342
358;1.2136012000009941;2343
359;1.2175769000004948;2343
360;1.221642000000429;2343
361;1.2252103999999235;2343
362;1.2286285999998654;2343
363;1.2326532999995834;2343
364;1.2362825000000157;2343
365;1.240643099999943;2343
366;1.2446424999998271;2344
367;1.2476131999992504;2344
368;1.2516453999996884;2344
369;1.2556383999999525;2344
370;1.2579258999994636;2345
371;1.2603495999992447;2345
372;1.2635623999995005;2345
373;1.2665493000004062;2346
374;1.2701311000000715;2346
375;1.2733545999999478;2347
376;1.2763539000006858;2347
377;1.27926110000044;2347
378;1.2823841999997967;2347
379;1.2853756000004068;2347
380;1.2880836999993335;2347
381;1.2913711000001058;2347
382;1.2943773000006331;2348
383;1.2973882000005688;2348
384;1.3003831000005448;2349
385;1.3030591000006098;2349
386;1.3053784000003361;2349
387;1.308373500000016;2349
388;1.3113811000002897;2350
389;1.3143782999995892;2349
390;1.3173805000005814;2349
391;1.320381900000939;2350
392;1.3233720999996876;2350
393;1.3263870000009774;2350
394;1.3290512999992643;2351
395;1.3323832000005496;2351
396;1.3350329999993846;2351
397;1.336972799999785;2351
398;1.3390555000005406;2351
399;1.3423198000000411;2351
400;1.3449820000005275;2352
401;1.3473544000007678;2352
402;1.3504616999998689;2352
403;1.3534682000008615;2353
404;1.3565400000006775;2353
405;1.3595624000008684;2353
406;1.3631330000007438;2353
407;1.36616850000064;2354
408;1.3691548999995575;2354
409;1.3720491000003676;2354
410;1.37519919999977;2354
411;1.3780021000002307;2355
412;1.3801978999999847;2355
413;1.383330799999385;2355
414;1.3863333000008424;2356
415;1.3893353999992542;2356
416;1.3923556999998254;2356
417;1.3951225000000704;2357
418;1.3983958999997412;2357
419;1.4013582000006863;2357
420;1.4043593000005785;2356
421;1.4070606999994197;2357
422;1.4103649000007863;2357
423;1.4133633000001282;2357
424;1.4163626999998087;2357
425;1.4193582000007154;2358
426;1.422357400000692;2358
427;1.42536199999995;2358
428;1.4283477000008133;2358
429;1.4313486000010016;2359
430;1.4343386000000464;2359
431;1.4373333000003186;2360
432;1.4401201000000583;2359
433;1.443114699999569;2360
434;1.444908100000248;2360
435;1.4471217999998771;2360
436;1.4490504000004876;2361
437;1.452118100000007;2361
438;1.4551000999999815;2361
439;1.4583108000006177;2361
440;1.462243199999648;2362
441;1.4666653000003862;2362
442;1.470653599999423;2363
443;1.4744541000000027;2364
444;1.4771889000003284;2364
445;1.480367699999988;2365
446;1.4833488999993278;2365
447;1.4863779000006616;2365
448;1.4894258999993326;2366
449;1.4923803000001499;2366
450;1.4950410000001284;2367
451;1.4983847000003152;2367
452;1.5013720000006288;2367
453;1.5043585999992501;2368
454;1.5082757000000129;2368
455;1.5111698000000615;2369
456;1.514377699999386;2370
457;1.5173549999999523;2370
458;1.5203390999995463;2370
459;1.523367199999484;2370
460;1.5263355999995838;2371
461;1.5290647000001627;2371
462;1.5323506999993697;2371
463;1.5353761000005761;2372
464;1.5383512999997038;2372
465;1.5413473999997223;2373
466;1.5440865000000485;2373
467;1.5473438999997597;2373
468;1.5502111999994668;2374
469;1.553047699999297;2374
470;1.5563414999996894;2374
471;1.559343799999624;2375
472;1.5620703999993566;2375
473;1.565343500000381;2376
474;1.568369700000403;2376
475;1.5713771000009729;2377
476;1.5743414999997185;2377
477;1.5770785999993677;2378
478;1.580357599999843;2378
479;1.583349000000453;2379
480;1.5863358999995398;2379
481;1.589357700000619;2379
482;1.5923361999994086;2380
483;1.5950592000008328;2381
484;1.598349199999575;2381
485;1.6013505999999325;2381
486;1.6043439999994007;2382
487;1.6073453000008158;2383
488;1.6103739999998652;2383
489;1.6133773000001383;2384
490;1.6161575000005541;2385
491;1.6193648999997095;2385
492;1.6223530999996;2386
493;1.6253381000005902;2387
494;1.628301200000351;2388
495;1.6309579999997368;2388
496;1.6343433000001824;2388
497;1.6373399999993126;2390
498;1.6403418999998394;2390
499;1.6433618999999453;2391
500;1.6461271999996825;2391
501;1.6493444999996427;2392
502;1.6523653999993257;2392
503;1.6553635000000213;2393
504;1.658346399999573;2394
505;1.6613527000008617;2395
506;1.6640764999992825;2395
507;1.667606999999407;2396
508;1.671655300000566;2397
509;1.6756354999997711;2398
510;1.67934570000034;2399
511;1.6822446999995009;2400
512;1.6856109000000288;2400
513;1.6884133000003203;2400
514;1.691307200000665;2400
515;1.69434899999942;2401
516;1.6972514999997657;2401
517;1.7002921999992395;2402
518;1.7033186000007845;2402
519;1.7063230000003387;2403
520;1.7093528999994305;2403
521;1.712030799999411;2404
522;1.7150738000000274;2404
523;1.718318299999737;2405
524;1.7213415000005625;2406
525;1.7243457999993552;2407
526;1.728078000000096;2407
527;1.7302350000009028;2408
528;1.7333486000006815;2408
529;1.7363256000007823;2409
530;1.7393707000010181;2409
531;1.742152900000292;2410
532;1.745019300000422;2411
533;1.7481463000003714;2411
534;1.7516978000003292;2412
535;1.7555441000004066;2413
536;1.758138900000631;2414
537;1.7612427000003663;2414
538;1.7633120000009512;2415
539;1.766459099999338;2416
540;1.7692948000003526;2416
541;1.7723194999998668;2417
542;1.775306300000011;2418
543;1.7783275000001595;2419
544;1.7813499999992928;2419
545;1.7843095000007452;2420
546;1.7888715000008233;2421
547;1.7924304000007396;2422
548;1.795044799999232;2422
549;1.7983352999999624;2423
550;1.801694800000405;2424
551;1.8051271000003908;2424
552;1.8083110000006855;2425
553;1.8113530000009632;2426
554;1.8146916000005149;2427
555;1.8183869999993476;2428
556;1.8213866999994934;2428
557;1.8244364000001951;2429
558;1.827316900000369;2430
559;1.830099799999516;2430
560;1.8333285999997315;2432
561;1.8360718000003544;2433
562;1.8390983000008418;2433
563;1.8423488000007637;2434
564;1.8450456999999005;2435
565;1.8473274000007223;2435
566;1.850313200000528;2436
567;1.853312499999447;2437
568;1.8562941000000137;2438
569;1.8592993000002025;2439
570;1.862058700000489;2439
571;1.8653279000009206;2440
572;1.868325299999924;2441
573;1.8711253000001307;2442
574;1.8740600000000995;2442
575;1.875964599999861;2443
576;1.878097799999523;2443
577;1.879989700000806;2443
578;1.8830895999999484;2444
579;1.8850684000008187;2444
580;1.8871030999998766;2445
581;1.890095900000233;2446
582;1.893091199999617;2446
583;1.8959584000003815;2447
584;1.897930400000405;2448
585;1.9000971000004938;2449
586;1.903745199999321;2449
587;1.90754890000062;2449
588;1.9104970000007597;2450
589;1.9132215999998152;2451
590;1.9166113999999652;2452
591;1.9201678999997966;2453
592;1.9232276000002457;2453
593;1.9261996999994153;2454
594;1.929031899999245;2455
595;1.9323519000008673;2455
596;1.9353460000002087;2456
597;1.938344500000312;2457
598;1.9413865999995323;2458
599;1.945040799999333;2459
600;1.9482941999995091;2460
601;1.9512825000001612;2461
602;1.9540546999996877;2462
603;1.9572738000006211;2463
604;1.9590901999999915;2463
605;1.9610821999995096;2463
606;1.9631515000000945;2463
607;1.9659685000005993;2464
608;1.9682680000005348;2465
609;1.9712460000009742;2465
610;1.9741826000008587;2466
611;1.9772861000001285;2467
612;1.9800520000007964;2467
613;1.9832862000002933;2468
614;1.9862494000008155;2469
615;1.98905620000005;2469
616;1.9922065999999177;2470
617;1.9950628000005963;2471
618;1.9983092000002216;2472
619;2.001305899999352;2472
620;2.0043000999994547;2473
621;2.0072928000008687;2473
622;2.0102836999994906;2474
623;2.0131404000003386;2475
624;2.0162615000008373;2475
625;2.019287600000098;2476
626;2.0220798999998806;2477
627;2.0239216000009037;2478
628;2.026101200000994;2478
629;2.028077500001018;2479
630;2.0299885000003997;2479
631;2.032078399999591;2479
632;2.0340281000007963;2480
633;2.0370318999994197;2481
634;2.0401426999997057;2482
635;2.0431315999994695;2483
636;2.0460345999999845;2484
637;2.0491285000007338;2484
638;2.051055300000371;2485
639;2.054138100000273;2486
640;2.05693489999976;2487
641;2.0591612000007444;2487
642;2.0611236000004283;2488
643;2.063114799999312;2488
644;2.066171700000268;2489
645;2.069137500000579;2490
646;2.0721403999996255;2490
647;2.0740784000008716;2491
648;2.077135499999713;2492
649;2.0788945999993302;2492
650;2.0811374000004434;2492
651;2.0840153000008286;2493
652;2.086988000000929;2493
653;2.0889934999995603;2494
654;2.091022900000098;2494
655;2.094025200000033;2495
656;2.0959182000005967;2495
657;2.0980390999993688;2496
658;2.1000036999994336;2496
659;2.1019465000008495;2497
660;2.1039328999995632;2497
661;2.1059304000009433;2498
662;2.1079449000008026;2498
663;2.110075799999322;2498
664;2.1130795999997645;2499
665;2.1159602000007;2500
666;2.1180581000007805;2500
667;2.119999900000039;2501
668;2.1220592000008764;2501
669;2.12407820000044;2502
670;2.1260339000000386;2502
671;2.129105800000616;2502
672;2.132105299999239;2502
673;2.1354759999994712;2503
674;2.138377799999944;2504
675;2.141320299999279;2505
676;2.1443211999994674;2505
677;2.1470466000009765;2506
678;2.150252699999328;2506
679;2.1532695999994758;2507
680;2.1562675000004674;2507
681;2.1592725999998947;2508
682;2.1619723999992857;2509
683;2.1652706999993825;2509
684;2.168278299999656;2510
685;2.171243000000686;2510
686;2.1743012000006274;2511
687;2.177294499999334;2512
688;2.180180900000778;2512
689;2.1830988000001526;2513
690;2.1850212999997893;2513
691;2.1873472000006586;2513
692;2.1904539999995905;2514
693;2.193321400000059;2514
694;2.1962856000009197;2515
695;2.1991677999994863;2516
696;2.20220800000061;2517
697;2.2051613999992696;2517
698;2.20821849999993;2518
699;2.211235700000543;2518
700;2.214265200000227;2518
701;2.217109999999593;2519
702;2.220109699999739;2520
703;2.223066500000641;2520
704;2.226054299999305;2521
705;2.2291174000001774;2521
706;2.2320488000004843;2522
707;2.2340662000005977;2522
708;2.237238499999876;2522
709;2.240225100000316;2523
710;2.243217299999742;2523
711;2.2461626999993314;2524
712;2.2507863999999245;2524
713;2.2546669999992446;2525
714;2.2586551000003965;2525
715;2.2620669999996608;2525
716;2.26440680000087;2526
717;2.2686690999998973;2526
718;2.2726734000007127;2527
719;2.2767987999995967;2527
