;time;amplitude
0;0.002967700000226614;2440
1;0.0055067000012059;2440
2;0.008691700000781566;2441
3;0.011832800000775023;2441
4;0.014796999999816762;2441
5;0.017660999999861815;2441
6;0.019552400000975467;2441
7;0.022766400001273723;2441
8;0.025488700001005782;2442
9;0.028534500001114793;2443
10;0.03174080000098911;2443
11;0.03477589999965858;2443
12;0.03770799999983865;2443
13;0.04069490000074438;2443
14;0.043701800001144875;2444
15;0.04672469999968598;2443
16;0.049615300000368734;2444
17;0.05256999999983236;2444
18;0.05577629999970668;2444
19;0.05874430000039865;2444
20;0.06188600000132283;2444
21;0.06476370000018505;2445
22;0.06759539999984554;2445
23;0.07076400000005378;2445
24;0.07360400000106893;2446
25;0.07677900000089721;2446
26;0.07986929999970016;2447
27;0.08256110000002082;2447
28;0.08475390000057814;2447
29;0.08788120000099298;2447
30;0.09074529999998049;2447
31;0.09352270000090357;2448
32;0.09677770000052988;2447
33;0.09945820000029926;2447
34;0.10177980000116804;2447
35;0.1047777000003407;2448
36;0.1075780000010127;2448
37;0.11078880000059144;2448
38;0.11396460000105435;2448
39;0.11659740000141028;2448
40;0.11976710000089952;2448
41;0.12288249999983236;2449
42;0.1257519000009779;2448
43;0.128577999999834;2449
44;0.1317572999996628;2449
45;0.1346214000004693;2448
46;0.13763339999968593;2448
47;0.14079230000061216;2448
48;0.1438694000007672;2448
49;0.14792190000116534;2448
50;0.15057450000131212;2448
51;0.15365340000062133;2448
52;0.15687550000075134;2448
53;0.1597780000010971;2448
54;0.16289300000062212;2448
55;0.1657575999997789;2447
56;0.16858930000125838;2447
57;0.17156710000017483;2447
58;0.17477300000064133;2447
59;0.17780090000087512;2447
60;0.1807621999996627;2447
61;0.18354400000134774;2446
62;0.1867552000003343;2446
63;0.18960010000046168;2446
64;0.19258040000022447;2447
65;0.19579840000005788;2446
66;0.19878919999973732;2446
67;0.20174870000118972;2446
68;0.20489360000101442;2446
69;0.20794600000044738;2447
70;0.21086629999990691;2447
71;0.21375850000003993;2446
72;0.2164829000012105;2446
73;0.21972509999977774;2446
74;0.22272549999979674;2446
75;0.22571770000104152;2446
76;0.22872910000114643;2446
77;0.2318609000012657;2446
78;0.23474480000004405;2446
79;0.2378633999996964;2446
80;0.2407256000005873;2446
81;0.24351720000049681;2446
82;0.24668360000032408;2445
83;0.24953269999969052;2445
84;0.2528550000006362;2445
85;0.2557457000002614;2445
86;0.2588604000011401;2444
87;0.2617292000013549;2444
88;0.2645001000000775;2444
89;0.26647240000056627;2444
90;0.2696019000013621;2444
91;0.2714508000008209;2443
92;0.2734572000008484;2443
93;0.27661820000139414;2442
94;0.2786305999998149;2442
95;0.2816214000013133;2442
96;0.284545700000308;2441
97;0.28801170000042475;2441
98;0.29127820000030624;2440
99;0.2947170000006736;2440
100;0.29800969999996596;2440
101;0.3009455000010348;2439
102;0.3037581999997201;2439
103;0.3068710000006831;2439
104;0.30971320000026026;2438
105;0.31284729999970295;2438
106;0.31571770000118704;2438
107;0.3186552000006486;2438
108;0.32152940000014496;2437
109;0.32475850000082573;2437
110;0.32786140000098385;2437
111;0.3307612999997218;2436
112;0.33340080000016314;2436
113;0.33675310000035097;2435
114;0.33987340000021504;2435
115;0.3427492999999231;2434
116;0.3455850999998802;2433
117;0.34872440000071947;2433
118;0.3517243000005692;2433
119;0.35475680000126886;2432
120;0.3579724000010174;2432
121;0.36088290000043344;2431
122;0.36389910000070813;2431
123;0.36653860000114946;2431
124;0.36887449999994715;2430
125;0.37187620000077004;2430
126;0.3748618000008719;2430
127;0.37785210000038205;2429
128;0.38068270000076154;2429
129;0.38363639999988663;2428
130;0.3868601000012859;2427
131;0.3898533999999927;2427
132;0.392846599999757;2426
133;0.3958546000012575;2426
134;0.3988564999999653;2426
135;0.4018981999997777;2425
136;0.4048359000007622;2425
137;0.40783290000035777;2424
138;0.4108391000008851;2424
139;0.4134903000012855;2424
140;0.4165929999999207;2424
141;0.41987370000060764;2424
142;0.42288320000079693;2423
143;0.42587319999984175;2422
144;0.4285288999999466;2422
145;0.4305517000011605;2422
146;0.433521799999653;2422
147;0.43685780000123486;2421
148;0.4398596999999427;2420
149;0.4428349999998318;2420
150;0.44587090000095486;2420
151;0.44883930000105465;2419
152;0.4518344000007346;2419
153;0.45485180000105174;2419
154;0.4578705000003538;2418
155;0.46062540000093577;2418
156;0.46366590000070573;2417
157;0.46645929999976943;2417
158;0.46968940000078874;2417
159;0.4728456000011647;2416
160;0.4755292999998346;2416
161;0.47890019999977085;2415
162;0.4818814000009297;2416
163;0.4848805000001448;2415
164;0.48787070000071253;2415
165;0.4907125999998243;2414
166;0.4938584000010451;2414
167;0.49684809999962454;2414
168;0.4995092000008299;2414
169;0.5028595000003406;2413
170;0.5058255000003555;2413
171;0.5088403000008839;2413
172;0.511841400000776;2412
173;0.5148394999996526;2412
174;0.5178603000003932;2412
175;0.5207315000006929;2412
176;0.5235124000009819;2411
177;0.5256246999997529;2411
178;0.5285960000001069;2410
179;0.5305946999997104;2410
180;0.5335962999997719;2410
181;0.5367048000007344;2410
182;0.5399721000012505;2409
183;0.5429839999997057;2409
184;0.5460527000013826;2409
185;0.5499202000009973;2408
186;0.5530003000003489;2408
187;0.5555402999998478;2407
188;0.558687300001111;2407
189;0.5617349000003742;2407
190;0.5648918000006233;2407
191;0.5677730000006704;2407
192;0.5708649000007426;2406
193;0.5735631000006833;2406
194;0.5765225000013743;2406
195;0.5785493000003044;2406
196;0.5807130000011966;2406
197;0.5835569999999279;2406
198;0.5868657000009989;2406
199;0.5898802000010619;2406
200;0.5928640000001906;2406
201;0.5958535999998276;2405
202;0.5988656000008632;2405
203;0.6018646000011358;2405
204;0.6048583000010694;2405
205;0.6078637999999046;2405
206;0.6108609000002616;2405
207;0.6138580000006186;2405
208;0.6165282000001753;2404
209;0.6197525999996287;2404
210;0.6227223000005324;2404
211;0.6257399000005535;2404
212;0.6287484000004042;2405
213;0.6317839000003005;2405
214;0.634558100000504;2405
215;0.6365994000007049;2405
216;0.6385994000011124;2405
217;0.6405673000008392;2405
218;0.642720100000588;2405
219;0.6458875999996962;2405
220;0.6485537999997177;2405
221;0.6507453000012902;2405
222;0.6535710999996809;2405
223;0.6555286000002525;2405
224;0.6574319999999716;2405
225;0.6595202999997127;2405
226;0.6615085000012186;2405
227;0.6636558000009245;2405
228;0.6665587999996205;2405
229;0.6696759000005841;2405
230;0.672878800000035;2405
231;0.6755291999998008;2405
232;0.6787663000013708;2406
233;0.6818782999998803;2405
234;0.6847593000002234;2406
235;0.6878844000002573;2406
236;0.6907549999996263;2406
237;0.6935706000003847;2406
238;0.6967147000013938;2406
239;0.6996022000002995;2406
240;0.7027662000000419;2406
241;0.7057598999999755;2406
242;0.7086549000014202;2406
243;0.711757300001409;2406
244;0.7147973999999522;2406
245;0.7177778000004764;2407
246;0.7205176000006759;2407
247;0.7225802000011754;2407
248;0.7245195000014064;2407
249;0.7265382000005047;2408
250;0.7285905000007915;2408
251;0.7305513000010251;2408
252;0.7324836999996478;2408
253;0.7344295000002603;2408
254;0.7364092999996501;2408
255;0.7384393000011187;2408
256;0.7405268000002252;2409
257;0.7424184000010428;2409
258;0.7443178000012267;2409
259;0.7463394000005792;2409
260;0.7483810000012454;2409
261;0.7504191999996692;2410
262;0.7525911000011547;2410
263;0.7544242000003578;2410
264;0.7564682000011089;2410
265;0.7584251000007498;2411
266;0.7604582000003575;2411
267;0.762464600000385;2411
268;0.7644355000011274;2411
269;0.7663589000003412;2411
270;0.7684564999999566;2411
271;0.7704286000007414;2412
272;0.7724546000008559;2412
273;0.7744383999997808;2412
274;0.7763866000004782;2412
275;0.7783908000001247;2413
276;0.7803874000001088;2413
277;0.7824584999998478;2413
278;0.7844058999999106;2413
279;0.7863401000013255;2413
280;0.7883660000006785;2413
281;0.7904035999999905;2413
282;0.7924010000006092;2413
283;0.7944151000010606;2413
284;0.7964401000008365;2414
285;0.7984469000002719;2414
286;0.8005375000011554;2414
287;0.8026040000004286;2414
288;0.8045574999996461;2415
289;0.8064978000002156;2415
290;0.8084307000008266;2415
291;0.8104855000001407;2416
292;0.8124688000007154;2416
293;0.8144752000007429;2416
294;0.816349500000797;2416
295;0.818387299999813;2416
296;0.8203960000009829;2416
297;0.8223414000003686;2417
298;0.8245067999996536;2417
299;0.826553300001251;2417
300;0.8285280000000057;2417
301;0.8303673999998864;2417
302;0.8323958000000857;2417
303;0.8344121000009181;2418
304;0.8363539000001765;2418
305;0.8384427000000869;2418
306;0.8403690000013739;2418
307;0.842313600000125;2419
308;0.8443489000001136;2419
309;0.8463265999998839;2419
310;0.8483108000000357;2419
311;0.8504588000014337;2419
312;0.8523299000007682;2420
313;0.8544058000006771;2420
314;0.8563052999998035;2421
315;0.858345399999962;2421
316;0.8603510000011738;2421
317;0.8624340000005759;2422
318;0.8654698000009375;2422
319;0.8678188000012597;2423
320;0.8705570000001899;2423
321;0.8725594999996247;2423
322;0.8746010000013484;2423
323;0.8776192000004812;2424
324;0.8793799000013678;2424
325;0.8815345000002708;2424
326;0.8834323000010045;2424
327;0.8855992999997397;2424
328;0.8884202999997797;2425
329;0.8904634000009537;2426
330;0.8923119000010047;2426
331;0.8943338000008225;2426
332;0.8963386000013998;2426
333;0.898341199999777;2426
334;0.900478600000497;2427
335;0.9026205999998638;2427
336;0.9044620000004215;2428
337;0.9064279000012903;2428
338;0.9085228000003553;2428
339;0.9105237000003399;2428
340;0.9125510000012582;2428
341;0.9145955000003596;2428
342;0.9174781000001531;2429
343;0.9193434999997407;2429
344;0.9213171999999759;2430
345;0.9233414000009361;2430
346;0.9253865000009682;2430
347;0.9273657000012463;2431
348;0.9293625999998767;2431
349;0.9313476000006631;2431
350;0.9333827999998903;2431
351;0.9353563000004215;2431
352;0.9373544999998558;2431
353;0.9395495999997365;2431
354;0.941564599999765;2431
355;0.9436001000012766;2432
356;0.9454051000011532;2432
357;0.947608800001035;2432
358;0.9495017000008374;2433
359;0.9525251000013668;2433
360;0.954530099999829;2434
361;0.9565067000003182;2434
362;0.9584960000011051;2434
363;0.9605028000005404;2434
364;0.9624206000007689;2434
365;0.9645152000011876;2434
366;0.9675141999996413;2435
367;0.9695337000011932;2435
368;0.9714082999998936;2435
369;0.973406299999624;2435
370;0.975428900001134;2435
371;0.9774342000000615;2435
372;0.9794271000009758;2436
373;0.9815306000000419;2436
374;0.9835431999999855;2436
375;0.9865396000004694;2437
376;0.9885242000000289;2437
377;0.9905281000010291;2437
378;0.9924714999997377;2437
379;0.9945939000008366;2437
380;0.9976208999996743;2438
381;0.9994698000009521;2438
382;1.001605200000995;2438
383;1.0034221000005346;2438
384;1.0054030999999668;2438
385;1.0074633000003814;2438
386;1.0095319000010932;2439
387;1.0115103000007366;2439
388;1.014558400000169;2440
389;1.0167140000012296;2441
390;1.0195552000004682;2441
391;1.0215657000007923;2441
392;1.0235288000003493;2441
393;1.026488800000152;2441
394;1.0284956000014063;2441
395;1.03043020000041;2441
396;1.0324035000012373;2441
397;1.034794299999703;2442
398;1.0375101000008726;2442
399;1.039486300000135;2442
400;1.0414887000006274;2443
401;1.0434856000010768;2443
402;1.0454210000007151;2443
403;1.047403700000359;2443
404;1.0494589999998425;2443
405;1.0517324000011286;2443
406;1.0544332999998005;2444
407;1.0564391999996587;2444
408;1.0584350000008271;2444
409;1.0604084000005969;2444
410;1.0623842000004515;2444
411;1.0643847999999707;2444
412;1.0664367000008497;2445
413;1.0686366999998427;2445
414;1.0714089000011882;2445
415;1.0734560000000783;2445
416;1.0754480000014155;2445
417;1.0774486999998771;2445
418;1.079450100000031;2445
419;1.0814440000012837;2445
420;1.0834363000012672;2445
421;1.0854717000001983;2445
422;1.0874641000009433;2445
423;1.0894662999999127;2445
424;1.0914626000012504;2445
425;1.0934678000012354;2445
426;1.0954746000006708;2445
427;1.0974647000002733;2445
428;1.0994315999996616;2446
429;1.1014721000010468;2446
430;1.1033712999997078;2446
431;1.105462700001226;2446
432;1.107548100000713;2446
433;1.1095271000012872;2446
434;1.111512200001016;2447
435;1.1135675000004994;2447
436;1.1165505000008125;2447
437;1.1195129999996425;2447
438;1.1229695000001811;2447
439;1.12580700000035;2447
440;1.1287729000014224;2448
441;1.1318185000000085;2447
442;1.1349411999999575;2447
443;1.1378248000000895;2448
444;1.1407240999997157;2447
445;1.1437115000007907;2447
446;1.1467505000000529;2447
447;1.1494492000001628;2447
448;1.1517761000013707;2447
449;1.1546949000003224;2447
450;1.1575052000007418;2447
451;1.160532100000637;2447
452;1.162539700000707;2447
453;1.1645212000003085;2447
454;1.166506000001391;2447
455;1.170166200001404;2447
456;1.1729298000009294;2447
457;1.1757453999998688;2446
458;1.1787387000003946;2446
459;1.181471200001397;2446
460;1.1848374000001058;2446
461;1.1876994000012928;2446
462;1.1907647000007273;2445
463;1.1937446000010823;2445
464;1.1967008999999962;2445
465;1.1995358000003762;2444
466;1.2027429999998276;2444
467;1.2058858000000328;2444
468;1.2087336000004143;2444
469;1.211563800001386;2444
470;1.2147118000011687;2444
471;1.2177631000013207;2445
472;1.2208281000002899;2445
473;1.2237436000013986;2444
474;1.22686640000029;2444
475;1.2297288999998273;2444
476;1.2326836000011099;2444
477;1.2357675000002928;2444
478;1.2385620000004565;2444
479;1.2408011999996233;2444
480;1.2437067999999272;2444
481;1.2465209000001778;2444
482;1.249503300001379;2444
483;1.2525077000009333;2444
484;1.2557668999997986;2443
485;1.2589588000009826;2443
486;1.2617335000013554;2442
487;1.264701400001286;2442
488;1.2676336000004085;2442
489;1.2697175000012066;2442
490;1.2724797999999282;2442
491;1.2744615000010526;2442
492;1.2767113000008976;2441
493;1.279480400000466;2441
494;1.2826081000002887;2440
495;1.2857555999999022;2440
496;1.2887855999997555;2440
497;1.2915167000010115;2440
498;1.2947137000010116;2440
499;1.2977638000011211;2440
500;1.3007704999999987;2439
501;1.3037091000005603;2439
502;1.3064923000001727;2438
503;1.30971049999971;2438
504;1.3127418000003672;2437
505;1.3158745000000636;2437
506;1.318721600000572;2437
507;1.3217208000005485;2437
508;1.324733200000992;2436
509;1.3277632000008452;2436
510;1.3307500000009895;2435
511;1.3338364000010188;2435
512;1.3367840999999316;2435
513;1.339764300000752;2435
514;1.3428831000001082;2434
515;1.3457366000002366;2434
516;1.3488268000000971;2433
517;1.3517264000001887;2433
518;1.354713000000629;2432
519;1.3577148000003945;2431
520;1.3607788999997865;2431
521;1.3637584000007337;2430
522;1.366580600000816;2430
523;1.3695547000006627;2429
524;1.3728858000013133;2429
525;1.3757306000006793;2428
526;1.3788891000003787;2428
527;1.38185650000014;2428
528;1.3847922000004473;2427
529;1.3876392000001943;2427
530;1.3906404999997903;2427
531;1.394279899999674;2426
532;1.398271800000657;2426
533;1.4012910000001284;2426
534;1.4041675000007672;2425
535;1.4081552999996347;2425
536;1.4121611999999004;2424
537;1.4162194000000454;2424
538;1.4191380000011122;2423
539;1.4231651999998576;2423
540;1.427158500000587;2423
541;1.4311593000002176;2423
542;1.4346713000013551;2422
543;1.4375429000010627;2422
544;1.439490200000364;2422
545;1.4415045000005193;2421
546;1.4434989000001224;2421
547;1.445553800000198;2421
548;1.4475256000005174;2421
549;1.4495289000005869;2421
550;1.4515725000001112;2420
551;1.4535702000011952;2420
552;1.4555737000009685;2419
553;1.4578529999998864;2419
554;1.4608944000010524;2418
555;1.4638303000010637;2418
556;1.466551999999865;2418
557;1.4698972000005597;2417
558;1.4728819000010844;2417
559;1.4757931000003737;2416
560;1.47888150000108;2416
561;1.4815952999997535;2415
562;1.4835629999997764;2415
563;1.4855655000010302;2414
564;1.4875895000004675;2414
565;1.4895914000007906;2414
566;1.491600400000607;2414
567;1.4936090000010154;2414
568;1.4956049000011262;2413
569;1.497573000000557;2413
570;1.4994772000009107;2413
571;1.501567100000102;2412
572;1.5035322000003362;2412
573;1.505521500001123;2412
574;1.5075689000004786;2412
575;1.509563600000547;2412
576;1.5116299000001163;2411
577;1.5145620000002964;2411
578;1.5165514000000258;2411
579;1.518615700000737;2411
580;1.5206121999999596;2411
581;1.5225894000013795;2411
582;1.5255684000003384;2410
583;1.52761559999999;2410
584;1.5295418000005157;2410
585;1.5316073000012693;2410
586;1.5336407000013423;2410
587;1.5356394999998884;2409
588;1.5376348000008875;2409
589;1.540662200000952;2409
590;1.543648300001223;2409
591;1.5465781000002607;2409
592;1.5496106000009604;2408
593;1.5519397999996727;2408
594;1.55622349999976;2408
595;1.5596427000000403;2408
596;1.5625902000010683;2408
597;1.5645046000008733;2407
598;1.5666148000000248;2408
599;1.5684839000005013;2407
600;1.5705155000014202;2407
601;1.5724291000005906;2407
602;1.574443400000746;2407
603;1.5764109000010649;2407
604;1.5783828000003268;2406
605;1.5803785000007338;2406
606;1.5824583000012353;2406
607;1.5843338000013318;2406
608;1.5863422000002174;2406
609;1.5883563000006689;2406
610;1.5903822000000218;2406
611;1.5925501000001532;2406
612;1.594570700000986;2406
613;1.5965203000014299;2406
614;1.59855349999998;2406
615;1.6007304000013391;2406
616;1.6035563000004913;2406
617;1.6067614000003232;2406
618;1.6099155000010796;2405
619;1.6129465000012715;2405
620;1.6159720000014204;2405
621;1.61877640000057;2405
622;1.6220013000001927;2405
623;1.624716800000897;2405
624;1.6275553000014042;2406
625;1.6295577000000776;2405
626;1.631473499999629;2406
627;1.6337261000007857;2406
628;1.6365487000002759;2406
629;1.638616500000353;2405
630;1.6421960999996372;2406
631;1.646096000000398;2406
632;1.6497304000004078;2406
633;1.6528833000011218;2406
634;1.6558784999997442;2406
635;1.658745100001397;2406
636;1.661883200000375;2406
637;1.6647759000006772;2406
638;1.6676337999997486;2405
639;1.6707153000006656;2406
640;1.6737678999998025;2406
641;1.6767718000010063;2406
642;1.6797665000012785;2406
643;1.6824310000010883;2406
644;1.6857656000011048;2406
645;1.6888976999998704;2406
646;1.6917826000008063;2406
647;1.694704700001239;2406
648;1.6975383999997575;2407
649;1.6996135000008508;2407
650;1.7016675000013493;2407
651;1.7045483000001695;2407
652;1.7075334000001021;2407
653;1.7095257000000856;2407
654;1.7115499999999884;2407
655;1.7135343000009016;2407
656;1.7155292000006739;2408
657;1.7175530000004073;2408
658;1.719557899999927;2408
659;1.7215474000004178;2408
660;1.7235658999998122;2408
661;1.7255444000002171;2408
662;1.7284744000007777;2408
663;1.7304524999999558;2408
664;1.7324344999997265;2408
665;1.734467100000984;2408
666;1.7363986000000295;2408
667;1.738449300000866;2409
668;1.740471900000557;2409
669;1.7435660000010103;2409
670;1.7455664000008255;2409
671;1.7475398000005953;2409
672;1.7494769000004453;2410
673;1.7515710000006948;2410
674;1.7534622000002855;2410
675;1.755389900001319;2410
676;1.7574280999997427;2410
677;1.7594521999999415;2410
678;1.7614386000004743;2410
679;1.7634247000005416;2411
680;1.765522100000453;2411
681;1.7675274000011996;2411
682;1.7695798000004288;2411
683;1.7715475000004517;2411
684;1.7734658999997919;2411
685;1.775520500001221;2411
686;1.7781580999999278;2411
687;1.7805031000007148;2411
688;1.7824723000012455;2412
689;1.7844654000000446;2412
690;1.7864638000010018;2412
691;1.7884088999999221;2412
692;1.790394900001047;2412
693;1.7924001999999746;2412
694;1.7943959000003815;2413
695;1.79642960000092;2413
696;1.7984360000009474;2413
697;1.8004794999997102;2414
698;1.8024311999997735;2414
699;1.8044277999997576;2414
700;1.806438800000251;2414
701;1.8084364000005735;2414
702;1.810383500000171;2415
703;1.812394900000072;2415
704;1.8143553999998403;2415
705;1.8163732000011805;2415
706;1.8183755999998539;2416
707;1.820464100001118;2416
708;1.8224496000002546;2417
709;1.8244187000000238;2417
710;1.8263929000004282;2417
711;1.8283836000009615;2418
712;1.8304710000011255;2418
713;1.8324573000008968;2418
714;1.8344505000004574;2418
715;1.8364577000011195;2419
716;1.8384323999998742;2419
