;time;amplitude
0;0.0034251999986736337;2348
1;0.007051700000374694;2348
2;0.01144430000022112;2348
3;0.015484399998968001;2349
4;0.01937559999896621;2349
5;0.02310399999987567;2349
6;0.026104900000063935;2349
7;0.029480399998647044;2350
8;0.0334683999990375;2350
9;0.036421400000108406;2351
10;0.040048699998806114;2351
11;0.04311799999959476;2351
12;0.04725739999958023;2351
13;0.05143739999948593;2351
14;0.05495289999998931;2352
15;0.05827849999877799;2352
16;0.06105249999927764;2352
17;0.06412300000010873;2352
18;0.06828010000026552;2352
19;0.07129659999918658;2353
20;0.07394409999869822;2353
21;0.07724819999930332;2354
22;0.08126029999948514;2354
23;0.08424349999950209;2354
24;0.08829159999913827;2354
25;0.09127979999902891;2355
26;0.09420909999971627;2355
27;0.0982717999995657;2355
28;0.10126899999886518;2356
29;0.10427720000006957;2356
30;0.10690819999945234;2356
31;0.11020680000001448;2356
32;0.11316660000011325;2357
33;0.11614740000004531;2357
34;0.11914950000027602;2357
35;0.12215119999927992;2357
36;0.1250779000001785;2358
37;0.12808059999952093;2358
38;0.1310723999995389;2359
39;0.13392769999882148;2359
40;0.1370998000002146;2359
41;0.1398668000001635;2360
42;0.1430936999986443;2360
43;0.14591449999898032;2360
44;0.14909019999868178;2360
45;0.15214430000014545;2361
46;0.15508839999893098;2361
47;0.15794300000015937;2361
48;0.1610867999988841;2361
49;0.1640955999992002;2361
50;0.16683709999961138;2362
51;0.16994709999926272;2362
52;0.1717533999999432;2362
53;0.1738564999996015;2363
54;0.17618559999937133;2363
55;0.18042499999864958;2363
56;0.18390399999952933;2363
57;0.1868252999993274;2363
58;0.18979969999963942;2364
59;0.1928451000003406;2364
60;0.19581269999980577;2364
61;0.19778579999911017;2365
62;0.20111399999950663;2365
63;0.20408940000015718;2365
64;0.20709270000043034;2365
65;0.2100510000000213;2366
66;0.21308399999907124;2366
67;0.21578839999892807;2366
68;0.2189621999987139;2367
69;0.2221028000003571;2367
70;0.2250711999986379;2367
71;0.2280721999995876;2367
72;0.23074439999982133;2368
73;0.2340870999996696;2368
74;0.23709119999875838;2369
75;0.23981129999992845;2368
76;0.2433402999995451;2369
77;0.2471847999986494;2369
78;0.24981019999904674;2370
79;0.2518640999987838;2370
80;0.25478859999930137;2370
81;0.2568351999998413;2371
82;0.2601753999988432;2372
83;0.26318220000030124;2372
84;0.26637420000042766;2373
85;0.27040870000018913;2374
86;0.2743467000000237;2374
87;0.2783815000002505;2375
88;0.2823883000000933;2376
89;0.28632739999920886;2376
90;0.28992079999989073;2377
91;0.29299489999903017;2378
92;0.29632719999972323;2379
93;0.3003845999992336;2379
94;0.30442690000018047;2380
95;0.3067931999994471;2380
96;0.3103484999992361;2380
97;0.31441520000043965;2381
98;0.31840419999934966;2382
99;0.3224391999992804;2383
100;0.3250042999989091;2383
101;0.3281518000003416;2384
102;0.3311431000001903;2384
103;0.33420529999966675;2384
104;0.33694069999910425;2385
105;0.3399601999990409;2385
106;0.3430649000001722;2385
107;0.345904599998903;2386
108;0.3490884000002552;2387
109;0.3521134999991773;2387
110;0.35578349999923375;2388
111;0.35900709999987157;2388
112;0.36197059999904013;2389
113;0.3650041000000783;2389
114;0.36801219999870227;2390
115;0.3710004000004119;2390
116;0.37386789999982284;2391
117;0.37701039999956265;2392
118;0.38001400000030117;2393
119;0.382764899999529;2394
120;0.3862528999998176;2394
121;0.3902849999994942;2395
122;0.3948325000001205;2396
123;0.39948499999991327;2398
124;0.4035492000002705;2399
125;0.4073907000001782;2400
126;0.41175769999972545;2400
127;0.41545549999864306;2402
128;0.41943689999970957;2402
129;0.42314900000019406;2403
130;0.42746210000041174;2404
131;0.4314377999999124;2405
132;0.43553809999866644;2406
133;0.43952100000024075;2406
134;0.4435070999988966;2407
135;0.44743299999936426;2408
136;0.4514363999987836;2409
137;0.45546269999977085;2410
138;0.45946919999914826;2411
139;0.4634374999986903;2412
140;0.46739229999911913;2412
141;0.47140889999900537;2413
142;0.47410889999991923;2414
143;0.47845219999908295;2415
144;0.48214310000003024;2415
145;0.4852508999993006;2416
146;0.48949890000039886;2417
147;0.493456199999855;2418
148;0.4970271000001958;2419
149;0.5001128999992943;2420
150;0.5046576000004279;2420
151;0.5086252000000968;2421
152;0.5125133999990794;2423
153;0.5165483000000677;2424
154;0.5205365999991045;2425
155;0.5241256999997859;2425
156;0.5271763000000647;2426
157;0.5316229000000021;2426
158;0.535612100000435;2427
159;0.5396524999996473;2428
160;0.5434495999998035;2429
161;0.5476015999993251;2430
162;0.5515851999989536;2431
163;0.555602499998713;2432
164;0.5595226999994338;2433
165;0.5635727999997471;2434
166;0.567048299999442;2435
167;0.5699260000001232;2436
168;0.5729838999995991;2436
169;0.5758955999990576;2437
170;0.5789444999991247;2438
171;0.5816937999989023;2438
172;0.5854073999998946;2439
173;0.5895634999997128;2440
174;0.5933741999997437;2441
175;0.5974308000004385;2442
176;0.6003259999997681;2443
177;0.604409300000043;2444
178;0.6084221999990405;2445
179;0.6118623999991541;2446
180;0.614842499999213;2447
181;0.6178378000004159;2448
182;0.6198791999995592;2449
183;0.6218336000001727;2449
184;0.6248539999996865;2450
185;0.6277322999994794;2450
186;0.6297904000002745;2451
187;0.6317270999988978;2451
188;0.6337621999991825;2452
189;0.6357575000001816;2452
190;0.637651699998969;2453
191;0.6406965999995009;2454
192;0.6426859000002878;2454
193;0.6446734000001015;2455
194;0.6466608999999153;2455
195;0.6486730999986321;2456
196;0.650654899998699;2457
197;0.652651499998683;2457
198;0.6546722999992198;2458
199;0.6566884000003483;2459
200;0.6586454999996931;2459
201;0.6606628999998065;2460
202;0.6627147999988665;2460
203;0.6646430999990116;2461
204;0.6667317999999796;2461
205;0.6687223999997514;2462
206;0.6706807999999;2462
207;0.6726708999995026;2463
208;0.6746851999996579;2463
209;0.6766713999986678;2463
210;0.6787023999986559;2464
211;0.6807329000002937;2465
212;0.6827878999993118;2465
213;0.6847717000000557;2466
214;0.6868310999998357;2466
215;0.6898734999995213;2467
216;0.6928719999996247;2467
217;0.695909500000198;2468
218;0.6988647999987734;2469
219;0.7011406000001443;2470
220;0.7041616999995313;2471
221;0.7067976999987877;2471
222;0.71015559999978;2472
223;0.7131862999995064;2473
224;0.7160597000001871;2473
225;0.719062500000291;2474
226;0.722198199999184;2474
227;0.7255528999994567;2475
228;0.7294944999994186;2476
229;0.7329453999991529;2477
230;0.7362233000003471;2477
231;0.7393522000002122;2478
232;0.7420917999988887;2479
233;0.7451626999991277;2480
234;0.7479141000003438;2480
235;0.7510093999990204;2481
236;0.754013899999336;2481
237;0.7571320999995805;2482
238;0.7599730000001728;2483
239;0.7631357999998727;2484
240;0.7656640999994124;2485
241;0.7694627999990189;2486
242;0.7728864000000613;2486
243;0.7774504999997589;2487
244;0.7810857000004034;2488
245;0.7854609999994864;2490
246;0.7893662999995286;2491
247;0.7933894999987388;2492
248;0.7973903000001883;2493
249;0.8013816000002407;2494
250;0.8043610000004264;2494
251;0.8083795000002283;2496
252;0.8123940999994375;2496
253;0.8163965000003373;2497
254;0.8198928000001615;2498
255;0.8229154000000563;2498
256;0.8260823999989952;2499
257;0.8303646000003937;2499
258;0.8343320999993011;2500
259;0.8383534000004147;2501
260;0.8413645999989967;2501
261;0.8453900000004069;2502
262;0.849398199999996;2503
263;0.8533651999987342;2504
264;0.8559499999992113;2504
265;0.8590164999986882;2504
266;0.8620785000002797;2504
267;0.8647368999991158;2505
268;0.8667384999989736;2506
269;0.8690031999994972;2507
270;0.8717668999997841;2507
271;0.874083900000187;2508
272;0.8770824999992328;2509
273;0.879907299999104;2509
274;0.8830373999990115;2509
275;0.8857750999995915;2510
276;0.8889140999999654;2511
277;0.8921071000004304;2511
278;0.8951108000001113;2512
279;0.8980715999987297;2513
280;0.9011221999990084;2513
281;0.9041031999986444;2514
282;0.9070972999998048;2514
283;0.9100921999997809;2515
284;0.9130798999995022;2515
285;0.9158742999989045;2516
286;0.9177817999989202;2517
287;0.9210783999988053;2517
288;0.9241148999990401;2518
289;0.9268814999995811;2518
290;0.9300836999991589;2519
291;0.9330804999990505;2520
292;0.9360630999999557;2520
293;0.9394431999990047;2520
294;0.9434361999992689;2520
295;0.9474790999993274;2521
296;0.9511382999990019;2521
297;0.9554750999996031;2523
298;0.9583298999987164;2523
299;0.9613167999996222;2524
300;0.9643190999995568;2524
301;0.9671256999990874;2525
302;0.9699160999989545;2525
303;0.9728543000001082;2525
304;0.9764027999990503;2526
305;0.98038489999999;2526
306;0.9840096999996604;2527
307;0.9880185999991227;2528
308;0.9911381999991136;2528
309;0.994077199999083;2528
310;0.9969848999990063;2529
311;1.000135299998874;2529
312;1.0031177999990177;2529
313;1.0057282999987365;2529
314;1.0088144999990618;2530
315;1.0121122000000469;2530
316;1.015117900000405;2530
317;1.0181163999986893;2530
318;1.0211134999990463;2531
319;1.024110099999234;2531
320;1.0271057999998447;2531
321;1.0301093999987643;2532
322;1.033119199999419;2532
323;1.0361154000001989;2532
324;1.0390444999993633;2532
325;1.0419721999987814;2533
326;1.04484070000035;2533
327;1.0478290999999444;2533
328;1.0509468999989622;2534
329;1.0538218000001507;2534
330;1.0572551999994175;2534
331;1.060373399999662;2534
332;1.0639414999986911;2534
333;1.06730239999888;2535
334;1.0712996999991447;2535
335;1.0741706999997405;2535
336;1.076967799999693;2535
337;1.0802743999993254;2536
338;1.0833192999998573;2536
339;1.087313099998937;2537
340;1.0912826000003406;2537
341;1.0942459999987477;2537
342;1.0973725999992894;2537
343;1.1013024999992922;2537
344;1.105435999999827;2537
345;1.1082429999987653;2538
346;1.1108539999986533;2538
347;1.1141661999990902;2538
348;1.117287099999885;2538
349;1.1197957999993378;2538
350;1.122934199998781;2538
351;1.1259128999990935;2539
352;1.1288824999992357;2539
353;1.1319332999992184;2538
354;1.135104400000273;2539
355;1.1379627999995137;2539
356;1.1409286999987671;2539
357;1.1437719999994442;2539
358;1.1456994000000122;2539
359;1.1482046999990416;2539
360;1.1518589999996038;2539
361;1.1537797000000865;2539
362;1.1557702999998583;2539
363;1.1577318999989075;2539
364;1.159769799998685;2539
365;1.1627566999995906;2539
366;1.165958800000226;2539
367;1.1690211999994062;2540
368;1.172006999999212;2540
369;1.1750290999989375;2540
370;1.1777180999997654;2540
371;1.1797016999989864;2540
372;1.1818231999986892;2540
373;1.1837658000004012;2540
374;1.1857638000001316;2540
375;1.187771699998848;2540
376;1.1898129999990488;2541
377;1.1928157000002102;2541
378;1.1948687000003702;2541
379;1.197872799999459;2540
380;1.2011591999998927;2541
381;1.2040347999991354;2541
382;1.2067521999997552;2541
383;1.2098908999996638;2541
384;1.2132094999997207;2541
385;1.2172837999987678;2541
386;1.2202452999990783;2541
387;1.22273259999929;2541
388;1.2251557999989018;2541
389;1.2291308000003482;2541
390;1.2319384999991598;2541
391;1.2349424000003637;2541
392;1.23776369999905;2541
393;1.2397005999991961;2541
394;1.2428908999991108;2541
395;1.2474277000001166;2541
396;1.2513289999988046;2541
397;1.2554142999997566;2541
398;1.2580368999988423;2541
399;1.2609667999986414;2540
400;1.264240599999539;2540
401;1.2669687999987218;2540
402;1.2697941999995237;2540
403;1.2726841999992757;2540
404;1.275107699999353;2540
405;1.2780044999999518;2540
406;1.2809474999994563;2540
407;1.2838954999988346;2540
408;1.2879899999988993;2540
409;1.290911899999628;2540
410;1.2938381999992998;2540
411;1.2957845000000816;2539
412;1.2978203000002395;2539
413;1.3009623999987525;2539
414;1.3027939000003244;2539
415;1.3048261999992974;2539
416;1.3068070999997872;2539
417;1.3098630999993475;2538
418;1.312967199999548;2538
419;1.3161127000003034;2538
420;1.3187985000004119;2539
421;1.3208169999998063;2539
422;1.3226701000003231;2539
423;1.3251228999997693;2539
424;1.3279573999989225;2538
425;1.3307767999995121;2538
426;1.333998000000065;2538
427;1.336925899999187;2539
428;1.3398435999988578;2538
429;1.3427923999988707;2538
430;1.3448084999999992;2538
431;1.3470937000001868;2538
432;1.3498034999993251;2538
433;1.3517790999994759;2538
434;1.3537694999995438;2538
435;1.356946899999457;2538
436;1.360331199999564;2538
437;1.3643347999986872;2538
438;1.3672396999991179;2538
439;1.3701820999995107;2538
440;1.3728668999992806;2538
441;1.3757033999991108;2538
442;1.3779446999997162;2538
443;1.3813699000002089;2538
444;1.3853373000001739;2538
445;1.389842900000076;2537
446;1.3942819999992935;2537
447;1.398200399999041;2536
448;1.4011264000000665;2536
449;1.405641999999716;2536
450;1.4091427000003023;2536
451;1.4118643999991036;2536
452;1.415311799999472;2536
453;1.419244400000025;2536
454;1.4221880999994028;2536
455;1.4251894999997603;2536
456;1.427859499999613;2536
457;1.4308423999991646;2536
458;1.432844799999657;2536
459;1.4348019999997632;2535
460;1.4368305999996664;2535
461;1.4397933999989618;2535
462;1.442876699999033;2535
463;1.4458462000002328;2535
464;1.4477446000000782;2535
465;1.4512744000003295;2535
466;1.4543355999994674;2535
467;1.4579421999987972;2534
468;1.4613931999992928;2534
469;1.465425000000323;2534
470;1.4694240999997419;2533
471;1.4728478999986692;2533
472;1.4759331999994174;2533
473;1.4793608999989374;2533
474;1.4823063999992883;2532
475;1.4849328999989666;2532
476;1.4880195999994612;2532
477;1.4897903000000952;2531
478;1.4931777999991027;2531
479;1.4970154999991792;2531
480;1.5003228999994462;2530
481;1.504418299999088;2529
482;1.5068821999993816;2529
483;1.5099250999992364;2530
484;1.5132902999994258;2529
485;1.5163197000001674;2529
486;1.5193397999992158;2529
487;1.5221940999999788;2529
488;1.5251265999995667;2528
489;1.528320999999778;2528
490;1.532413799999631;2528
491;1.5364172999998118;2528
492;1.5398322999990341;2528
493;1.5433311999986472;2528
494;1.5462860999996337;2528
495;1.550411999998687;2528
496;1.554371700000047;2528
497;1.5578931000000011;2528
498;1.5612930999996024;2527
499;1.5642396000002918;2527
500;1.5671729999994568;2527
501;1.5701737999988836;2527
502;1.5728012999989005;2527
503;1.5753206999997929;2527
504;1.578360800000155;2526
505;1.582384600000296;2526
506;1.5864299999993818;2526
507;1.5898383000003378;2526
508;1.5930241999994905;2525
509;1.5963326000000961;2525
510;1.5999625000004016;2526
511;1.603441399998701;2525
512;1.6057553999999072;2525
513;1.6081880000001547;2524
514;1.6111590999989858;2524
515;1.614380799999708;2524
516;1.618419399999766;2524
517;1.6218834999999672;2524
518;1.6237208999991708;2524
519;1.6268672999995033;2523
520;1.6298575999990135;2523
521;1.6318623999995907;2523
522;1.633853100000124;2522
523;1.6357854999987467;2522
524;1.6386602999991737;2522
525;1.6408515000002808;2522
526;1.6437941000003775;2521
527;1.6458504000001994;2521
528;1.6477904000003036;2521
529;1.64980469999864;2521
530;1.6517593999997189;2521
531;1.6538265999988653;2521
532;1.6556760000003123;2521
533;1.658130899999378;2520
534;1.6608629999991535;2520
535;1.662850900000194;2520
536;1.6658520000000863;2519
537;1.6677722000003996;2519
538;1.6698405999995884;2519
539;1.6718856999996206;2518
540;1.6737310999997135;2518
541;1.6768955999996251;2518
542;1.6800059999986843;2518
543;1.6830377999995108;2517
544;1.6860359000002063;2517
545;1.688718899999003;2516
546;1.6910494999992807;2516
547;1.694360699999379;2516
548;1.698278300000311;2515
549;1.7011760999994294;2515
550;1.705418899999131;2515
551;1.7083112000000256;2515
552;1.7113697000004322;2514
553;1.7154113999986293;2514
554;1.719409799999994;2514
555;1.7229600999999093;2513
556;1.7264930000001186;2513
557;1.7290300000004208;2512
558;1.7322069999991072;2512
559;1.7352162999995926;2512
560;1.7381734999999026;2512
561;1.7412879999992583;2511
562;1.7442627000000357;2511
563;1.7472297999993316;2511
564;1.75018799999998;2510
565;1.754311400000006;2510
566;1.7568916000000172;2509
567;1.7600925999995525;2510
568;1.7632059999996272;2509
569;1.766185399999813;2509
570;1.7692416999998386;2508
571;1.7722869999997783;2508
572;1.7751508000001195;2508
573;1.7782109999989189;2508
574;1.7812004999996134;2507
575;1.7842043000000558;2507
576;1.7870469999998022;2507
577;1.789868199999546;2506
578;1.792837499999223;2506
579;1.7957581999999093;2505
580;1.7989963999989413;2505
581;1.8019922000003135;2505
582;1.8050150999988546;2504
583;1.808233099998688;2504
584;1.8109967000000324;2504
585;1.8137876999990112;2503
586;1.8158409999996366;2503
587;1.817883300000176;2502
588;1.8209248000002844;2502
589;1.8227845000001253;2502
590;1.8260345999988203;2501
591;1.8292724000002636;2501
592;1.8322171999989223;2500
593;1.8352113999990252;2500
594;1.8382244999993418;2499
595;1.8411656999996922;2499
596;1.8440637000003335;2498
597;1.847008900000219;2498
598;1.8500649999987218;2497
599;1.852977099999407;2497
600;1.8557715999995708;2496
601;1.8582420000002458;2496
602;1.8608640999991621;2496
603;1.864006399999198;2495
604;1.8671192999991035;2495
605;1.8701597999988735;2494
606;1.872867199999746;2493
607;1.8758256999990408;2493
608;1.8791444999988016;2492
609;1.882141000000047;2492
610;1.8850870999995095;2491
611;1.8884718999997858;2491
612;1.8909415999987687;2491
613;1.893964099999721;2491
614;1.8973726000003808;2490
615;1.901429100000314;2490
616;1.903874800000267;2489
617;1.9056995999999344;2489
618;1.9083634999988135;2489
619;1.9108221999995294;2488
620;1.9138372999987041;2488
621;1.9158122999997431;2487
622;1.917746699999043;2487
623;1.9198350999995455;2487
624;1.921860899999956;2486
625;1.9241314999999304;2486
626;1.9268599999995786;2486
627;1.9288390000001527;2485
628;1.9318175999997038;2485
629;1.9338589999988471;2484
630;1.936967800000275;2484
631;1.9398646999998164;2484
632;1.942894099998739;2484
633;1.9464761999988696;2483
634;1.9504146999988734;2482
635;1.9543814999997267;2482
636;1.9569093999998586;2481
637;1.9598236999991059;2480
638;1.9633484999994835;2480
639;1.9673583999992843;2479
640;1.9703582000001916;2479
641;1.9740966999997909;2478
642;1.9773867999992945;2477
643;1.9814372999990155;2476
644;1.9854121999997005;2476
645;1.9890611999999237;2475
646;1.992091199999777;2475
647;1.9953021000001172;2474
648;1.9983388999989984;2474
649;2.0024464999987686;2473
650;2.005928700000368;2473
651;2.0090323999993416;2472
652;2.0121332999988226;2471
653;2.0152070999993157;2471
654;2.0191777;2471
655;2.022263299999395;2470
656;2.025227599999198;2470
657;2.028004099998725;2469
658;2.031123299999308;2469
659;2.034198800000013;2468
660;2.036945799998648;2468
661;2.0397715999988577;2467
662;2.0428003999986686;2467
663;2.0460563999986334;2466
664;2.0490481999986514;2465
665;2.0521004000001994;2465
666;2.055132399998911;2463
667;2.0584072999990894;2463
668;2.0613715999988926;2463
669;2.064875399999437;2462
670;2.0668752000001405;2461
671;2.068855199999234;2461
672;2.07080440000027;2461
673;2.0740547999994305;2460
674;2.077127599999585;2460
675;2.0801192999988416;2459
676;2.083116699999664;2459
677;2.0860807999997633;2458
678;2.088818500000343;2457
679;2.090884199998982;2457
680;2.0931564000002254;2456
681;2.09596319999946;2456
682;2.098978799998804;2456
683;2.1019607999987784;2455
684;2.1050261999989743;2454
685;2.108224399999017;2454
686;2.1124416000002384;2453
687;2.1164290999986406;2452
688;2.1199601999996958;2451
689;2.1229397999995854;2451
690;2.126251699999557;2451
691;2.129278099999283;2450
692;2.1322043999989546;2449
693;2.136183299999175;2449
694;2.138847899999746;2448
695;2.1420215999987704;2447
696;2.14544879999994;2447
697;2.1494376999999076;2446
698;2.1532917999993515;2445
699;2.1558148999993136;2444
700;2.1589026000001468;2444
701;2.16226800000004;2443
702;2.1652075000001787;2442
703;2.1679117000003316;2442
704;2.169900400000188;2441
705;2.1728936999988946;2441
706;2.1758637000002636;2440
707;2.178864399998929;2440
708;2.1818516000003;2440
709;2.184968800000206;2439
710;2.18793899999946;2439
711;2.189819399998669;2438
712;2.1917753999987326;2438
713;2.1939559999991616;2437
714;2.1969484000001103;2437
715;2.1999290000003384;2436
716;2.2028740999994625;2436
717;2.205842699999266;2435
718;2.2091922999989038;2435
