;time;amplitude
0;0.005031400000007125;2441
1;0.008817100000669598;2442
2;0.013285000000905711;2443
3;0.01820400000178779;2443
4;0.023448900001312722;2444
5;0.027890800000022864;2444
6;0.03185400000074878;2444
7;0.035598900001787115;2445
8;0.040070100001685205;2445
9;0.04391040000155044;2445
10;0.047914300001139054;2445
11;0.05138530000112951;2446
12;0.054575100000874954;2446
13;0.057879800000591786;2446
14;0.06160480000107782;2446
15;0.0647175000012794;2446
16;0.06838290000087;2446
17;0.07175290000122914;2446
18;0.075782200001413;2446
19;0.07839660000172444;2447
20;0.08134760000029928;2447
21;0.08433300000069721;2447
22;0.0873423000011826;2447
23;0.09031470000081754;2447
24;0.09330250000130036;2447
25;0.09632550000060291;2447
26;0.09924780000073952;2447
27;0.10145660000125645;2447
28;0.10422360000120534;2447
29;0.10727800000131538;2447
30;0.11025390000031621;2447
31;0.11214790000121866;2447
32;0.1142245000010007;2447
33;0.11620980000043346;2447
34;0.11823090000143566;2447
35;0.12024900000142225;2448
36;0.12220480000178213;2448
37;0.12406340000052296;2447
38;0.126211400000102;2447
39;0.12820910000118602;2447
40;0.1301342000006116;2447
41;0.13220360000013898;2447
42;0.13418800000181363;2447
43;0.1362051000014617;2448
44;0.13820170000144572;2448
45;0.14119550000032177;2448
46;0.143094300001394;2448
47;0.14521870000135095;2447
48;0.14723740000044927;2447
49;0.14921100000174192;2447
50;0.1512644000013097;2447
51;0.15325720000146248;2447
52;0.15625;2447
53;0.15818840000065393;2447
54;0.1602089000007254;2447
55;0.1622047000000748;2446
56;0.16526540000086243;2446
57;0.16827660000126343;2446
58;0.17126010000174574;2446
59;0.17327390000173182;2446
60;0.1762352000005194;2446
61;0.17948790000082226;2446
62;0.18251600000075996;2446
63;0.18559230000028037;2446
64;0.18851310000172816;2446
65;0.19150880000051984;2445
66;0.19451110000045446;2445
67;0.19753040000068722;2445
68;0.2005479000017658;2445
69;0.20344960000147694;2445
70;0.20618670000112616;2445
71;0.20944320000126027;2445
72;0.21246030000111205;2444
73;0.21549330000016198;2444
74;0.21855890000006184;2444
75;0.22144360000129382;2444
76;0.22443810000004305;2444
77;0.2271323000004486;2443
78;0.2291203000004316;2443
79;0.23119370000131312;2443
80;0.23344280000128492;2443
81;0.236208300000726;2443
82;0.23822280000058527;2442
83;0.24021240000001853;2442
84;0.24222790000021632;2442
85;0.24417870000070252;2441
86;0.24719330000152695;2441
87;0.24916420000045036;2441
88;0.2512313000006543;2441
89;0.2532500000015716;2441
90;0.2552008000002388;2440
91;0.25719610000123794;2440
92;0.2591842000001634;2440
93;0.2622804000002361;2440
94;0.26426940000055765;2439
95;0.2660998000010295;2439
96;0.2680947000008018;2439
97;0.2702610000014829;2438
98;0.2722603000001982;2438
99;0.2742067000017414;2438
100;0.27725160000045435;2438
101;0.2792018000000098;2438
102;0.28123500000037893;2437
103;0.2832237000002351;2437
104;0.2850986000012199;2437
105;0.28716540000095847;2437
106;0.2892630000005738;2436
107;0.2923037000000477;2436
108;0.29563820000112173;2436
109;0.2982993000005081;2436
110;0.3012378000003082;2435
111;0.3046250000006694;2435
112;0.30793330000051355;2434
113;0.3118385000016133;2434
114;0.3159283000004507;2434
115;0.31953360000079556;2434
116;0.3226308000012068;2433
117;0.32554850000087754;2433
118;0.32861530000081984;2433
119;0.3316244000016013;2432
120;0.33424810000178695;2432
121;0.33781510000153503;2431
122;0.3418284000017593;2431
123;0.34580210000058287;2430
124;0.349812500000553;2430
125;0.35278980000111915;2430
126;0.35630810000111524;2429
127;0.35976860000118904;2429
128;0.3638265000008687;2428
129;0.36748400000033143;2428
130;0.37075220000042464;2427
131;0.3737386000011611;2427
132;0.37781920000088576;2427
133;0.38182980000055977;2426
134;0.3857361000009405;2425
135;0.389797500001805;2424
136;0.39369100000112667;2424
137;0.3963846000006015;2423
138;0.39958890000161773;2423
139;0.40263170000071113;2423
140;0.4055117000007158;2422
141;0.40849340000022494;2422
142;0.4116440000016155;2422
143;0.4144979000011517;2422
144;0.4173565000000963;2421
145;0.42091460000119696;2421
146;0.42515780000030645;2420
147;0.43006530000093335;2419
148;0.434016100000008;2418
149;0.43773930000133987;2418
150;0.4422922000012477;2418
151;0.44659430000137945;2417
152;0.4512395000001561;2416
153;0.4547753000006196;2416
154;0.45859290000043984;2415
155;0.4617394000015338;2415
156;0.46600540000144974;2414
157;0.4699917000016285;2413
158;0.4739653000015096;2413
159;0.4779831000014383;2412
160;0.48198240000056103;2412
161;0.4855555000012828;2411
162;0.4888094000016281;2411
163;0.491731100000834;2410
164;0.4956824000000779;2410
165;0.4987060000003112;2410
166;0.501218900000822;2410
167;0.5044938000010006;2410
168;0.5075118000004295;2409
169;0.5105073000013363;2409
170;0.513500800001566;2408
171;0.5162440000003699;2408
172;0.5193167000015819;2408
173;0.5229710000003251;2408
174;0.5265151000003243;2408
175;0.5293355000012525;2408
176;0.5327756000006048;2408
177;0.5352513000016188;2408
178;0.5372557000009692;2407
179;0.5405731000009837;2407
180;0.543253800000457;2407
181;0.5466041000017867;2407
182;0.5495550000014191;2406
183;0.5522787000008975;2406
184;0.5552322000003187;2406
185;0.5584156000004441;2406
186;0.5614383000011003;2406
187;0.5644758000016736;2406
188;0.5671727000008104;2406
189;0.5705531000003248;2406
190;0.573546500001612;2405
191;0.5765506000007008;2405
192;0.5795542000014393;2405
193;0.5825646000012057;2405
194;0.5855522000001656;2405
195;0.5885533000000578;2405
196;0.5915830000012647;2405
197;0.5945555000016611;2405
198;0.5975573000014265;2405
199;0.600539300001401;2405
200;0.6035562000015489;2405
201;0.6065468000015244;2405
202;0.6092039000013756;2405
203;0.6125523000009707;2405
204;0.6155612000002293;2405
205;0.6185682000013912;2405
206;0.6215580000007321;2405
207;0.6245637000010902;2404
208;0.6275505000012345;2404
209;0.6305657000011706;2404
210;0.6335345000006782;2404
211;0.6365667000009125;2404
212;0.6392526000017824;2404
213;0.6425760000001901;2403
214;0.645544200000586;2404
215;0.6485469000017474;2404
216;0.6515496000010899;2404
217;0.6545512000011513;2404
218;0.6575499000009586;2404
219;0.660565600001064;2404
220;0.6635409000009531;2404
221;0.6665480000010575;2404
222;0.669252100000449;2404
223;0.6725591000013083;2404
224;0.6755457000017486;2404
225;0.6785371000005398;2404
226;0.6815830000014103;2404
227;0.6842652000013913;2405
228;0.687575800000559;2405
229;0.6905270000006567;2405
230;0.6935165000013512;2405
231;0.6965375000017957;2406
232;0.6994865000015125;2406
233;0.7025422000006074;2406
234;0.7055455000008806;2406
235;0.7085637000000133;2406
236;0.7115614000013011;2406
237;0.7145381000009365;2407
238;0.7172154000018054;2407
239;0.7205537000008917;2407
240;0.7235507000004873;2407
241;0.7265326000015193;2408
242;0.729408200000762;2408
243;0.7325353000014729;2408
244;0.7355706000016653;2409
245;0.73854780000147;2409
246;0.7415392000002612;2409
247;0.7445431000014651;2409
248;0.7475635000009788;2410
249;0.7504827000011574;2410
250;0.7535696000013559;2410
251;0.7565592000009929;2410
252;0.7594714000006206;2411
253;0.7625423000008595;2411
254;0.7655446000007942;2411
255;0.7685650000003079;2412
256;0.7715754000000743;2412
257;0.7745377000010194;2412
258;0.7775622000008298;2413
259;0.7805424000016501;2414
260;0.7833831000007194;2414
261;0.7865347000006295;2414
262;0.7895337000009022;2414
263;0.7925812000012229;2415
264;0.7955298000015318;2415
265;0.7985425000006217;2416
266;0.8012634000006074;2416
267;0.8045656000012968;2416
268;0.8075668000001315;2417
269;0.8105437000012898;2417
270;0.8135370000018156;2417
271;0.8165599000003567;2418
272;0.8195433000000776;2418
273;0.8225621000001411;2419
274;0.8255429000000731;2419
275;0.828536000000895;2420
276;0.8312777000010101;2420
277;0.8342420000008133;2420
278;0.8372183000010409;2421
279;0.8392003000008117;2421
280;0.8411257000007026;2421
281;0.8431410000011965;2421
282;0.8451915000005101;2421
283;0.8471599000004062;2422
284;0.8491555000000517;2422
285;0.8511616000014328;2423
286;0.8532520000007935;2423
287;0.8563223000001017;2423
288;0.8593205000015587;2423
289;0.8623556000002282;2424
290;0.8653203000012581;2425
291;0.8671548000002076;2425
292;0.8703330000007554;2426
293;0.8722732000005635;2426
294;0.8753210000013496;2426
295;0.8772707000007358;2426
296;0.8791861000008794;2427
297;0.8812004000010347;2427
298;0.8831271000017296;2427
299;0.8851629000000685;2427
300;0.8871894000003522;2428
301;0.8892670000004728;2428
302;0.8922804000012547;2428
303;0.8952828000001318;2428
304;0.8981496000014886;2428
305;0.9012845000015659;2429
306;0.9046227000017097;2429
307;0.9076651000013953;2430
308;0.9106649000004836;2430
309;0.9136481000005006;2430
310;0.9166730000015377;2431
311;0.919588400000066;2432
312;0.9225497000006726;2432
313;0.9255348000006052;2433
314;0.928331100001742;2433
315;0.9315442000006442;2434
316;0.9342445000002044;2434
317;0.9375680000011926;2434
318;0.9405705000008311;2435
319;0.9434354000004532;2435
320;0.9465656000011222;2435
321;0.9495687000016915;2435
322;0.9525658000002295;2436
323;0.9555631000002904;2436
324;0.9584404000015638;2437
325;0.9615674000015133;2437
326;0.9645647000015742;2438
327;0.9672204000016791;2438
328;0.9701879000003828;2439
329;0.9722184000002017;2439
330;0.9755710000008548;2439
331;0.9783823000016127;2439
332;0.9801929000004748;2440
333;0.9822296000002098;2440
334;0.9842530000005354;2441
335;0.9864030000007915;2441
336;0.9892305000012129;2441
337;0.9925400000010995;2441
338;0.9955573000006552;2441
339;0.9985602000015206;2441
340;1.0014421000014408;2442
341;1.0045735000003333;2442
342;1.007565700001578;2442
343;1.0111584000005678;2443
344;1.0132955000008224;2443
345;1.0152307000007568;2443
346;1.018327700001464;2444
347;1.0213831000000937;2444
348;1.0243180000015855;2444
349;1.0273206000001665;2445
350;1.0301896000000852;2445
351;1.032234400001471;2445
352;1.0342020000007324;2445
353;1.0361316000016814;2445
354;1.038322700000208;2445
355;1.0413412000016251;2445
356;1.0445351000016672;2446
357;1.0474589000004926;2446
358;1.050389300000461;2446
359;1.0533976000006078;2446
360;1.0563957000013033;2446
361;1.0594103000003088;2446
362;1.0623708000002807;2446
363;1.0653623000016523;2447
364;1.0684581000004982;2447
365;1.0714337000008527;2447
366;1.0744416000015917;2447
367;1.0773974000003363;2447
368;1.0804585000005318;2447
369;1.0833861000010074;2447
370;1.0864738000000216;2447
371;1.0892924000017956;2447
372;1.0923060000004625;2447
373;1.0952936000012414;2447
374;1.0972547000001214;2447
375;1.0992844000011246;2447
376;1.1012558000002173;2447
377;1.1032624000017677;2447
378;1.1052587000012863;2447
379;1.107229000001098;2447
380;1.109230000000025;2447
381;1.1112703000017063;2448
382;1.1132528000016464;2448
383;1.1152688000001945;2448
384;1.1172132000010606;2448
385;1.1192777000014758;2448
386;1.1211816000013641;2448
387;1.1231673000002047;2448
388;1.1251410000004398;2448
389;1.1271334000011848;2448
390;1.129129800001465;2449
391;1.1311335000009421;2449
392;1.1331249000013486;2448
393;1.135156200001802;2448
394;1.1372336000003997;2448
395;1.140546100001302;2448
396;1.1451031000015064;2448
397;1.1501526000010927;2448
398;1.153993800000535;2448
399;1.157514500000616;2448
400;1.16023370000039;2448
401;1.1622086000006675;2448
402;1.1642900000006193;2448
403;1.1672332000016468;2447
404;1.1692881000017223;2447
405;1.1712602000006882;2447
406;1.173061700001199;2447
407;1.1750586000016483;2447
408;1.1770216000004439;2447
409;1.1789998000003834;2446
410;1.1812258000009024;2446
411;1.1832222000011825;2446
412;1.1852525000012974;2446
413;1.1870565000008355;2446
414;1.1892839000011008;2446
415;1.191167700000733;2446
416;1.1931556000017736;2445
417;1.195195900001636;2445
418;1.1972137000011571;2445
419;1.1992177000010997;2445
420;1.2012341000008746;2445
421;1.2030519000018103;2445
422;1.2050402000004397;2445
423;1.2070419000010588;2445
424;1.209041400001297;2445
425;1.2110826000007364;2445
426;1.2130322000011802;2445
427;1.2150335000005725;2444
428;1.2172068000018044;2444
429;1.2190188000004127;2444
430;1.2210297000001447;2444
431;1.2230115000002115;2443
432;1.2250878000013472;2444
433;1.2270152000000962;2444
434;1.2290443000001687;2444
435;1.2310364000004483;2444
436;1.2330206000006;2444
437;1.2350505000013072;2443
438;1.2370437000008678;2444
439;1.2390438000002177;2443
440;1.2410223000006226;2443
441;1.243047600000864;2443
442;1.2452413000009983;2443
443;1.247023200001422;2443
444;1.2490227000016603;2443
445;1.25105910000093;2442
446;1.2530521000007866;2442
447;1.2550831000007747;2442
448;1.2570438000002468;2442
449;1.2590538000004017;2442
450;1.261057500001698;2442
451;1.2630450000015117;2441
452;1.265168600000834;2441
453;1.267189000000144;2441
454;1.2690465000014228;2441
455;1.2712055000010878;2441
456;1.2732876000009128;2440
457;1.2766011000003346;2440
458;1.279608200000439;2440
459;1.2826133000016853;2440
460;1.2856365000006917;2440
461;1.2887469000015699;2439
462;1.2916468000003078;2439
463;1.294601600000533;2439
464;1.29754690000118;2439
465;1.3005466000013257;2439
466;1.3036058000016055;2438
467;1.306605200001286;2438
468;1.3096107000001211;2437
469;1.3126220000012836;2437
470;1.3155844000011712;2437
471;1.3186238000016601;2437
472;1.3216087000000698;2436
473;1.3246113000004698;2436
474;1.327202500000567;2435
475;1.3306063000018185;2435
476;1.3336215000017546;2435
477;1.3366115000007994;2434
478;1.3396047000005638;2434
479;1.3426170000002458;2433
480;1.3456142000013642;2433
481;1.3486118000000715;2433
482;1.351323400000183;2432
483;1.3546002000002773;2432
484;1.3576419000000897;2431
485;1.3604750000013155;2431
486;1.3635812000011356;2430
487;1.3665633000000525;2430
488;1.369525000000067;2429
489;1.3724445000007108;2428
490;1.375525800000105;2428
491;1.3785400000015215;2428
492;1.381527500001539;2427
493;1.3842863000008947;2426
494;1.3874165000015637;2426
495;1.3904569000005722;2425
496;1.3934005000010075;2425
497;1.3964218000000983;2424
498;1.3994392000004154;2424
499;1.402554300000702;2424
500;1.4055522000016936;2424
501;1.4085595000015019;2423
502;1.4115440000005037;2423
503;1.4145481000014115;2422
504;1.4172591000005923;2422
505;1.4205407000008563;2422
506;1.4235436000017216;2421
507;1.4264075000010052;2421
508;1.429532800000743;2420
509;1.4322228000000905;2419
510;1.4352519000003667;2419
511;1.4382828000016161;2419
512;1.4412872000011703;2419
513;1.4443066000003455;2418
514;1.4472881000001507;2418
515;1.450219800000923;2418
516;1.4532816000009916;2418
517;1.4552987000006397;2417
518;1.4583063000009133;2417
519;1.4613002000005508;2417
520;1.4647807000001194;2417
521;1.4687164000006305;2416
522;1.4717203000000154;2416
523;1.4746570000006614;2415
524;1.477656200000638;2414
525;1.4806532000002335;2414
526;1.483409100001154;2413
527;1.4867393000004085;2413
528;1.4896676000007574;2413
529;1.4925944000005984;2412
530;1.4967319000006682;2412
531;1.4996583000011015;2411
532;1.5022757000006095;2411
533;1.505428700000266;2411
534;1.5084825000012643;2410
535;1.5119136000012077;2410
536;1.5158602000010433;2409
537;1.5198461000018142;2409
538;1.5238240000016958;2408
539;1.5279247000016767;2408
540;1.53165110000009;2407
541;1.5345612000000983;2406
542;1.537649700001566;2406
543;1.541675700000269;2406
544;1.5456859000005352;2406
545;1.5483065000007628;2406
546;1.5512941000015417;2406
547;1.554414900001575;2406
548;1.55761960000018;2405
549;1.5606660000012198;2405
550;1.5636225000016566;2405
551;1.5673832000011316;2405
552;1.570620800001052;2405
553;1.573594300001787;2405
554;1.5764247000006435;2404
555;1.579443300001003;2404
556;1.5824301000011474;2404
557;1.585509300000922;2404
558;1.5884783000001335;2404
559;1.5914395000017976;2404
560;1.5944264000008843;2404
561;1.59726210000008;2403
562;1.5993383000004542;2403
563;1.6022700000012264;2404
564;1.6044006000010995;2404
565;1.6073807000011584;2404
566;1.6103814000016428;2404
567;1.613504800001465;2403
568;1.6164747000002535;2403
569;1.6194616000011592;2404
570;1.6224587000015163;2403
571;1.6254722000012407;2403
572;1.628465600000709;2404
573;1.6314600000005157;2404
574;1.6342257000014797;2404
575;1.6379657000015868;2404
576;1.6415351000014198;2404
577;1.6445652000002156;2404
578;1.647376400000212;2404
579;1.6502748000002612;2404
580;1.6535661000016262;2404
581;1.6565687000002072;2405
582;1.6595670000006066;2405
583;1.6625769000002038;2405
584;1.6655676000009407;2405
585;1.6685653000004095;2405
586;1.6715718000014022;2405
587;1.674554100000023;2405
588;1.6773604000009072;2405
589;1.6805706000013743;2405
590;1.6835889000012685;2405
591;1.6865726000014547;2405
592;1.6895633000003727;2405
593;1.6925619000012375;2405
594;1.6955641000004107;2405
595;1.6982357000015327;2406
596;1.700077000001329;2406
597;1.703526500001317;2406
598;1.7065597000000707;2406
599;1.7094602000015584;2407
600;1.7125616000012087;2407
601;1.71557440000106;2406
602;1.7182758000017202;2407
603;1.721564200001012;2407
604;1.7245610000009037;2407
605;1.7275669000009657;2408
606;1.7305637000008574;2408
607;1.733585400001175;2408
608;1.736571900000854;2408
609;1.7395650000016758;2408
610;1.7424835000001622;2408
611;1.745559900000444;2409
612;1.7482528000000457;2409
613;1.7515864000015426;2409
614;1.7545604000006279;2410
615;1.7575614000015776;2410
616;1.760557500001596;2411
617;1.7635580000005575;2411
618;1.766548600000533;2411
619;1.770576800001436;2412
620;1.7735641000017495;2411
621;1.7765601000010065;2412
622;1.779613500000778;2412
623;1.782237700001133;2412
624;1.7854419000013877;2413
625;1.7882636000013008;2413
626;1.791475400001218;2414
627;1.7944484000017837;2414
628;1.7974609000011696;2414
629;1.800207300000693;2414
630;1.8024337000006199;2414
631;1.8054515000003448;2414
632;1.8084417000009125;2415
633;1.81127540000125;2415
634;1.8134565000000293;2416
635;1.8164166000005935;2416
636;1.8193930000015825;2416
637;1.8224392000010994;2417
638;1.8254366000001028;2417
639;1.8284454000004189;2417
640;1.8314569000012852;2418
641;1.8342606000005617;2418
642;1.8374564000005194;2419
643;1.8404600000012579;2419
644;1.8434455000005983;2419
645;1.8464458000016748;2420
646;1.8494408000005933;2421
647;1.8514141000014206;2421
648;1.8544554000000062;2421
649;1.8574539000001096;2421
650;1.8604565000005095;2422
651;1.8634858000004897;2423
652;1.866442200000165;2423
653;1.8694597000012436;2424
654;1.8724600000005012;2425
655;1.8754598000014084;2425
656;1.8783598000009079;2425
657;1.8814615000010235;2426
658;1.8842492000003404;2427
659;1.8874568000010186;2426
660;1.8902586000003794;2427
661;1.8934188000002905;2427
662;1.896433400001115;2427
663;1.899442400001135;2428
664;1.9026516000012634;2428
665;1.9056808000004821;2429
666;1.9084822000004351;2430
667;1.9114811000017653;2430
668;1.9146184000001085;2430
669;1.9174224000016693;2431
670;1.920437500000844;2431
671;1.923448900000949;2432
672;1.9263026000007812;2432
673;1.9294913000012457;2432
674;1.9323041000006924;2433
675;1.9358116000003065;2433
676;1.9398436000010406;2433
677;1.943671600000016;2434
678;1.9478679000003467;2434
679;1.9517790000008972;2435
680;1.9558697000011307;2435
681;1.9598508000017318;2436
682;1.96385040000132;2436
683;1.9662911000013992;2437
684;1.968292700001257;2437
685;1.9713459000013245;2437
686;1.9741183000005549;2438
687;1.9762327000007645;2438
688;1.9781412000011187;2438
689;1.9801063000013528;2438
690;1.982547000001432;2438
691;1.9855656000017916;2438
692;1.988555500000075;2439
693;1.991409800000838;2439
694;1.9946140000010928;2439
695;1.997609400001238;2439
696;2.0001557000014145;2440
697;2.0024170000015147;2440
698;2.00518430000011;2440
699;2.0073469000017212;2441
700;2.0103077000003395;2441
701;2.0125209000016184;2441
702;2.0153887000014947;2441
703;2.0183908000017254;2442
704;2.021990100000039;2443
705;2.025343300001623;2443
706;2.028385400000843;2443
707;2.0319613000010577;2443
708;2.0353425000012066;2443
709;2.0387984000008146;2444
710;2.0419228000009753;2444
711;2.0457757000003767;2445
712;2.0498337000008178;2445
713;2.0523911000000226;2445
714;2.055676300000414;2446
715;2.0586200000016106;2447
716;2.0615062000015314;2447
717;2.064478500000405;2447
