;time;amplitude
0;0.005529899999601184;2349
1;0.01128199999948265;2349
2;0.01634560000093188;2350
3;0.02217419999942649;2349
4;0.02707870000085677;2350
5;0.03200939999987895;2350
6;0.03683599999931175;2350
7;0.04021900000043388;2350
8;0.044780800000808085;2350
9;0.04871559999992314;2351
10;0.05270810000001802;2351
11;0.05623770000056538;2351
12;0.05972180000026128;2351
13;0.0637062000005244;2352
14;0.06775589999961085;2352
15;0.07153870000001916;2352
16;0.07558430000062799;2353
17;0.07933070000035514;2353
18;0.08362710000074003;2353
19;0.08762170000045444;2353
20;0.0917740999993839;2353
21;0.09571499999947264;2354
22;0.09970050000083575;2354
23;0.10359530000096129;2355
24;0.10767069999928935;2355
25;0.11163680000026943;2355
26;0.11527620000015304;2356
27;0.11803789999976289;2356
28;0.1209978000006231;2356
29;0.12412399999993795;2356
30;0.1276092999996763;2356
31;0.13157160000082513;2356
32;0.13563079999948968;2357
33;0.13914680000016233;2357
34;0.1426145000004908;2358
35;0.14664369999991322;2358
36;0.15063440000085393;2358
37;0.15478339999935997;2358
38;0.15851309999925434;2358
39;0.16246900000078313;2359
40;0.16640499999994063;2359
41;0.17023060000065016;2359
42;0.1731515000010404;2360
43;0.1762957999999344;2360
44;0.17912500000056752;2360
45;0.18213269999978365;2361
46;0.1866210999996838;2361
47;0.19022399999994377;2361
48;0.1945888999998715;2362
49;0.19848950000050536;2362
50;0.20258260000082373;2362
51;0.20618990000002668;2363
52;0.2095220999999583;2363
53;0.2134944000008545;2363
54;0.2165218999998615;2364
55;0.22052740000071935;2364
56;0.22341190000042843;2365
57;0.2275050000007468;2365
58;0.2315868000005139;2365
59;0.2354470999998739;2365
60;0.23950499999955355;2366
61;0.24350140000024112;2366
62;0.24757909999971162;2366
63;0.2514506000006804;2367
64;0.2540045999994618;2368
65;0.2571260999993683;2368
66;0.26001929999983986;2369
67;0.263294099999257;2369
68;0.26615619999938644;2370
69;0.2692836999995052;2370
70;0.27197399999931804;2371
71;0.2750458999998955;2371
72;0.2781992000000173;2372
73;0.28116729999965173;2372
74;0.28428770000027725;2372
75;0.28712629999972705;2373
76;0.29008389999944484;2374
77;0.29319109999960347;2374
78;0.29616600000008475;2375
79;0.2992900000008376;2375
80;0.302167300000292;2376
81;0.30499330000020564;2376
82;0.3081944999994448;2377
83;0.3111344000008103;2377
84;0.3142647000004217;2378
85;0.3171529000010196;2379
86;0.3202822000002925;2379
87;0.32349539999995613;2380
88;0.3269847999999911;2380
89;0.330263300000297;2380
90;0.33313079999970796;2381
91;0.3362918000002537;2382
92;0.33899320000091393;2382
93;0.34203809999962687;2382
94;0.3451697000000422;2383
95;0.34812179999971704;2383
96;0.35130089999984193;2384
97;0.3541079999995418;2385
98;0.35714659999939613;2385
99;0.3605241000004753;2386
100;0.36469279999982973;2386
101;0.3684986000007484;2387
102;0.37216240000088874;2387
103;0.37551970000095025;2388
104;0.3796944000005169;2389
105;0.3834941000004619;2390
106;0.38759360000040033;2390
107;0.39011419999951613;2391
108;0.3934482000004209;2391
109;0.396246100001008;2392
110;0.3991112999992765;2393
111;0.4027925000009418;2393
112;0.4073552000008931;2394
113;0.41135380000014266;2394
114;0.41430960000070627;2395
115;0.4182230000005802;2396
116;0.42113120000067283;2397
117;0.4242467000003671;2397
118;0.4274654000000737;2398
119;0.43010900000081165;2398
120;0.43298499999946216;2399
121;0.4360372000010102;2400
122;0.43916019999960554;2400
123;0.44264509999993606;2401
124;0.4452899999996589;2401
125;0.44788359999984095;2402
126;0.45086690000061935;2402
127;0.45406089999960386;2403
128;0.45616789999985485;2403
129;0.45947639999940293;2404
130;0.4633914999994886;2405
131;0.46637229999942065;2406
132;0.46931410000070173;2406
133;0.47195430000101624;2407
134;0.47536630000104196;2408
135;0.47836260000076436;2408
136;0.48136069999964093;2409
137;0.48436600000059116;2410
138;0.4872039000001678;2410
139;0.4900718000008055;2411
140;0.49328699999932724;2412
141;0.4974414999996952;2413
142;0.5014422000003833;2413
143;0.5044632000008278;2414
144;0.5071060000009311;2415
145;0.5103961000004347;2415
146;0.513196899999457;2416
147;0.5161643000010372;2416
148;0.5190987000005407;2417
149;0.5220224999993661;2418
150;0.5251184999997349;2417
151;0.5281615999992937;2418
152;0.5311595000002853;2419
153;0.5342153000001417;2419
154;0.5371854999993957;2420
155;0.5400136999996903;2420
156;0.5431117000007362;2421
157;0.5460894999996526;2422
158;0.549163600000611;2422
159;0.5521545999999944;2423
160;0.5548417999998492;2424
161;0.5581361000004108;2425
162;0.5611430999997538;2425
163;0.5641309000002366;2426
164;0.5671203000001697;2426
165;0.5704573000002711;2427
166;0.5730922000002465;2428
167;0.5761825000008685;2429
168;0.5791709999994055;2429
169;0.5821396999999706;2430
170;0.5852028000008431;2430
171;0.5877925999993749;2431
172;0.5901513000007981;2432
173;0.5931653000006918;2433
174;0.596147899999778;2433
175;0.5991331999994145;2435
176;0.6022749000003387;2435
177;0.6050047000007908;2436
178;0.6080595999992511;2437
179;0.6109362999995938;2437
180;0.6129407999997056;2438
181;0.6149304999999003;2439
182;0.617277200000899;2439
183;0.6202226000004885;2440
184;0.6231932999999117;2441
185;0.6262624999999389;2441
186;0.6291990000008809;2442
187;0.6322144999994634;2443
188;0.6352943000001687;2443
189;0.6378254000010202;2444
190;0.6410560999993322;2444
191;0.6441310000009253;2445
192;0.6486750000003667;2446
193;0.6525710000005347;2447
194;0.6564300999998522;2448
195;0.6600822000000335;2449
196;0.6636230000003707;2450
197;0.6675052999999025;2451
198;0.6711254000001645;2452
199;0.6742546999994374;2452
200;0.677451800000199;2453
201;0.6816130000006524;2454
202;0.6855818999993062;2455
203;0.687915399999838;2456
204;0.6913144999998622;2456
205;0.6942842000007658;2457
206;0.6972447999996803;2457
207;0.7002133000005415;2458
208;0.7030771999998251;2459
209;0.7060426000007283;2459
210;0.7091987999992853;2460
211;0.7122395000005781;2461
212;0.7151960999999574;2462
213;0.7182960999998613;2463
214;0.7208578000008856;2465
215;0.7242707000004884;2465
216;0.7272783000007621;2466
217;0.7302276999998867;2466
218;0.7331816000005347;2467
219;0.7363041000007797;2468
220;0.7390341999998782;2468
221;0.7421835999994073;2469
222;0.7451452000004792;2470
223;0.7481793000006292;2470
224;0.7511622000001807;2471
225;0.7542324999994889;2471
226;0.7572529000008217;2472
227;0.7602167999993981;2473
228;0.7632336000006035;2474
229;0.7663007999999536;2474
230;0.7692275000008522;2475
231;0.7719971000005899;2475
232;0.7750780000005761;2476
233;0.7781455000003916;2477
234;0.7811574999996083;2477
235;0.784134699999413;2477
236;0.7871188999997685;2478
237;0.7901218999995763;2478
238;0.7934958999994706;2478
239;0.7963220000001456;2479
240;0.7993129000005865;2479
241;0.8023604999998497;2480
242;0.8051133999997546;2480
243;0.8082742999995389;2481
244;0.8112619000003178;2482
245;0.8142635999993217;2482
246;0.8171101999996608;2483
247;0.8201023000001442;2483
248;0.8234828999993624;2484
249;0.8273828000001231;2485
250;0.8313108000002103;2486
251;0.8343619000006584;2486
252;0.8372319000009156;2487
253;0.8402805999994598;2487
254;0.8432795999997325;2488
255;0.8462835000009363;2488
256;0.8491009000008489;2489
257;0.8519921000006434;2490
258;0.8549397000006138;2491
259;0.8582872999995743;2492
260;0.861215999999331;2492
261;0.8642885000008391;2493
262;0.8669138999994175;2494
263;0.8689957000005961;2494
264;0.8719313000001421;2495
265;0.8739476000009745;2495
266;0.8772829999998066;2496
267;0.8801020000009885;2497
268;0.8839774999996735;2497
269;0.8859234000010474;2498
270;0.8892087999993237;2499
271;0.8922234000001481;2499
272;0.895160100000794;2500
273;0.8982828999996855;2500
274;0.9013252000004286;2501
275;0.9042246000008163;2501
276;0.9072142000004533;2501
277;0.910198900000978;2501
278;0.9131957999998122;2502
279;0.9161997999999585;2502
280;0.9192008000009082;2503
281;0.9223197000010259;2504
282;0.9253282999998191;2504
283;0.9283328000001347;2505
284;0.9313376999998582;2505
285;0.9343351000006805;2506
286;0.9373565000005328;2506
287;0.9403075000009267;2507
288;0.942922100000942;2508
289;0.9462987000006251;2508
290;0.9492984999997134;2508
291;0.9523002999994787;2509
292;0.9551623000006657;2509
293;0.9582953999997699;2509
294;0.961296699999366;2510
295;0.9642899000009493;2511
296;0.9672988000002078;2511
297;0.970296600000438;2511
298;0.9732946999993146;2512
299;0.9762195000002976;2513
300;0.979167999999845;2513
301;0.9820297000005667;2514
302;0.9849422000006598;2514
303;0.9868506000002526;2514
304;0.9889241000000766;2515
305;0.99128969999947;2515
306;0.994135400000232;2515
307;0.9972563999999693;2515
308;1.0000362999999197;2516
309;1.003154899999572;2516
310;1.0062913000001572;2516
311;1.00916320000033;2517
312;1.0122845999994752;2517
313;1.0151499000003241;2517
314;1.0181845999995858;2517
315;1.0209348000007594;2518
316;1.0241105000004609;2518
317;1.027107199999591;2519
318;1.0301713000008021;2519
319;1.0330405000004248;2519
320;1.036133300000074;2520
321;1.0392121000004408;2520
322;1.0422548999995342;2521
323;1.0451979000008578;2521
324;1.048053099999379;2521
325;1.051206000000093;2521
326;1.0542323000008764;2522
327;1.0572047000005114;2522
328;1.0602453000010428;2522
329;1.0630510999999387;2523
330;1.0662396000006993;2523
331;1.0692498000007618;2523
332;1.0718498999995063;2523
333;1.0742897000000085;2524
334;1.077046500000506;2524
335;1.08012620000045;2524
336;1.083220500000607;2525
337;1.0863212999993266;2525
338;1.089097000000038;2525
339;1.0921564000000217;2525
340;1.0951535000003787;2525
341;1.0984707000006892;2526
342;1.101352899999256;2526
343;1.1045405999993818;2527
344;1.1073054999997112;2527
345;1.1104854000004707;2527
346;1.1144679999997607;2527
347;1.1184742000004917;2528
348;1.1221457999999984;2528
349;1.1250510000008944;2529
350;1.1284164999997301;2529
351;1.131339100000332;2529
352;1.1341924000007566;2530
353;1.1371849999995902;2530
354;1.1401131000002351;2530
355;1.1430894000004628;2530
356;1.1459592999999586;2530
357;1.149242100000265;2530
358;1.152102100000775;2530
359;1.155019199999515;2530
360;1.1581163999999262;2530
361;1.161063400000785;2531
362;1.1642300999992585;2531
363;1.1670702000010351;2531
364;1.1701327999999194;2531
365;1.173167700000704;2531
366;1.1762202000008983;2531
367;1.179187899999306;2531
368;1.1821080000008806;2531
369;1.1852653000005375;2531
370;1.1878809999998339;2531
371;1.1913437000002887;2531
372;1.1942390000003797;2531
373;1.1971039000000019;2531
374;1.1998743000003742;2531
375;1.2020277999999962;2531
376;1.2040214000007836;2531
377;1.2070022999996581;2531
378;1.209919599999921;2531
379;1.2119810000003781;2531
380;1.2138740999998845;2531
381;1.217010800000935;2531
382;1.2200446000006195;2531
383;1.2233274999998685;2531
384;1.2264622000002419;2531
385;1.2305720999993355;2531
386;1.23449090000031;2531
387;1.238129499999559;2531
388;1.2410087999996904;2531
389;1.2439212999997835;2532
390;1.2471160000004602;2532
391;1.2500989000000118;2532
392;1.253246100000979;2532
393;1.2562758000003669;2532
394;1.258954700000686;2532
395;1.2610089000008884;2532
396;1.2639961000004405;2532
397;1.267023700000209;2532
398;1.2699353999996674;2532
399;1.2719529000005423;2532
400;1.2750032000003557;2532
401;1.2780091000004177;2532
402;1.2808122999995248;2532
403;1.2830685000008089;2532
404;1.2860450000007404;2532
405;1.289013999999952;2532
406;1.2923676000009436;2532
407;1.2954518999995344;2531
408;1.2982480000009673;2532
409;1.301121200000125;2532
410;1.3038262000009126;2531
411;1.3058837999997195;2531
412;1.3083583999996335;2531
413;1.3109791000006226;2531
414;1.3142219000001205;2531
415;1.3171990000009828;2531
416;1.3199882999997499;2531
417;1.3220516000001226;2531
418;1.32529009999962;2531
419;1.3280778000007558;2531
420;1.331083099999887;2531
421;1.3340454000008322;2531
422;1.3368897000000288;2531
423;1.3401530999999522;2531
424;1.344655099999727;2531
425;1.3485342999993009;2531
426;1.3508263000003353;2531
427;1.3540288000003784;2531
428;1.3570634000006976;2531
429;1.3600480000004609;2531
430;1.3631580000001122;2531
431;1.3663331999996444;2531
432;1.3693168000008882;2531
433;1.373315900000307;2531
434;1.3762743999996019;2531
435;1.3792687999994087;2531
436;1.3822237999993376;2530
437;1.385290399999576;2530
438;1.3879589999996824;2530
439;1.3912930000005872;2530
440;1.3942652000005182;2530
441;1.3972641000000294;2529
442;1.4002643000003445;2529
443;1.4031018999994558;2529
444;1.4060030000000552;2529
445;1.4091518000004726;2529
446;1.4121505000002799;2529
447;1.4150938000002498;2529
448;1.4181143999994674;2529
449;1.4209088000006886;2529
450;1.4230442000007315;2529
451;1.4262677000006079;2529
452;1.4292688999994425;2529
453;1.4322642000006454;2529
454;1.4352937000003294;2529
455;1.4379109000001336;2529
456;1.4411846000002697;2529
457;1.4441681999996945;2529
458;1.4471599999997125;2529
459;1.4501132999994297;2529
460;1.453089099999488;2529
461;1.4563171999998303;2529
462;1.4593046999998478;2529
463;1.4623086000010517;2529
464;1.4653072000000975;2529
465;1.4681712000001426;2529
466;1.4709481000008964;2529
467;1.474104900000384;2529
468;1.47733160000098;2529
469;1.4802829000000202;2529
470;1.4832120000010036;2529
471;1.4860282999998162;2529
472;1.4889834999994491;2529
473;1.4922779000007722;2529
474;1.4951849000008224;2529
475;1.4985087999993993;2529
476;1.5025724999995873;2529
477;1.5061843000003137;2528
478;1.5105708000010054;2528
479;1.5141063000010035;2529
480;1.5174786999996286;2529
481;1.5211366999992606;2529
482;1.5245365999999194;2529
483;1.5285452000007353;2529
484;1.5325585000009596;2529
485;1.5365744999999151;2529
486;1.5394589000006818;2529
487;1.5423191000008956;2529
488;1.5453199000003224;2529
489;1.5483703000008973;2529
490;1.5511697000001732;2529
491;1.5541835999993054;2529
492;1.5572888999995484;2529
493;1.5602070999993884;2529
494;1.5632012000005489;2529
495;1.566294199999902;2529
496;1.5693443000000116;2529
497;1.5723323000001983;2529
498;1.5753306000005978;2529
499;1.5783277000009548;2529
500;1.581066799999462;2529
501;1.5843091999995522;2529
502;1.587368599999536;2529
503;1.5900820000006206;2529
504;1.5932663999992656;2529
505;1.5962596000008489;2529
506;1.5992525000001478;2529
507;1.6022861000001285;2528
508;1.6052899999995134;2528
509;1.6082863000010548;2528
510;1.6112981000005675;2528
511;1.614285600000585;2528
512;1.6172779000007722;2528
513;1.6202422000005754;2528
514;1.6232335999993666;2528
515;1.6262616999993043;2528
516;1.6292346000009275;2528
517;1.6322598999995535;2528
518;1.6361185000005207;2528
519;1.639283599999544;2528
520;1.6422693000004074;2528
521;1.6452628999995795;2528
522;1.648259900000994;2528
523;1.6512769000000844;2528
524;1.6540741999997408;2528
525;1.6572596999994857;2528
526;1.660267200000817;2527
527;1.663267600000836;2527
528;1.6662527000007685;2527
529;1.669262900000831;2527
530;1.6722704999992857;2527
531;1.6752627000005305;2527
532;1.67825989999983;2527
533;1.6809709000008297;2527
534;1.6842656999997416;2527
535;1.6873412999993889;2527
536;1.6902774999998655;2527
537;1.6932694999995874;2527
538;1.695992799999658;2527
539;1.6992527000002156;2527
540;1.7022613000008278;2527
541;1.7051398000003246;2526
542;1.7082549999995535;2526
543;1.7113100000005943;2526
544;1.7142540999993798;2526
545;1.71725940000033;2526
546;1.7201232999996137;2526
547;1.7233126000010088;2526
548;1.7263127000005625;2526
549;1.7293134999999893;2526
550;1.7321050999998988;2526
551;1.735115900000892;2526
552;1.737917500000549;2526
553;1.7410698999992746;2526
554;1.744070400000055;2526
555;1.7470855999999912;2525
556;1.7506954000000405;2525
557;1.7543734000009863;2525
558;1.758498299999701;2525
559;1.7625547000006918;2525
560;1.7665063999993436;2525
561;1.7702236999994057;2525
562;1.773584700000356;2525
563;1.7775533999993058;2525
564;1.7815651000000798;2525
565;1.7852815000005648;2524
566;1.7880320000003849;2524
567;1.7915169999996579;2524
568;1.79556969999976;2524
569;1.7995436000001064;2524
570;1.8025278999994043;2524
571;1.8065559000006033;2524
572;1.810560699999769;2523
573;1.8145657000004576;2523
574;1.8175357000000076;2524
575;1.8210957999999664;2523
576;1.8245105999994848;2523
577;1.8283408000006602;2523
578;1.8325748999995994;2523
579;1.8365747000007104;2523
580;1.8395454000001337;2523
581;1.8435697000004438;2522
582;1.8475770999993983;2522
583;1.851562300000296;2522
584;1.8555145999998786;2522
585;1.8595650000006572;2522
586;1.8629581999994116;2522
587;1.8664351999996143;2521
588;1.8706098000002385;2521
589;1.8745543000004545;2521
590;1.8772556999992958;2520
591;1.88025750000088;2520
592;1.8832571000002645;2520
593;1.8863000000001193;2520
594;1.8892909999995027;2520
595;1.8919762999994418;2519
596;1.8939344000009442;2519
597;1.8972398999994766;2519
598;1.9002758999995422;2519
599;1.9032998000002408;2519
600;1.9059228999994957;2519
601;1.9093071999996027;2518
602;1.9122989000006783;2518
603;1.91529459999947;2518
604;1.918295900000885;2518
605;1.9209413000007771;2518
606;1.923979999999574;2518
607;1.9270097999997233;2517
608;1.9289912000003824;2517
609;1.93200539999998;2518
610;1.9355450000002747;2517
611;1.9395590999993146;2517
612;1.9434817000001203;2517
613;1.9475800000000163;2517
614;1.9510726000007708;2516
615;1.954134100000374;2515
616;1.957428699999582;2516
617;1.9614880999997695;2515
618;1.9654919000004156;2515
619;1.9695231000005151;2514
620;1.972406900000351;2514
621;1.9755552000005991;2513
622;1.979492399999799;2513
623;1.9836113000001205;2513
624;1.9874147000009543;2512
625;1.991094000000885;2512
626;1.9944691000000603;2512
627;1.9985460000007151;2512
628;2.001263000000108;2512
629;2.0039641999992455;2511
630;2.007548499999757;2511
631;2.0114807000009023;2511
632;2.0155799000003753;2511
633;2.019487900000968;2510
634;2.0220253999996203;2509
635;2.025094099999478;2509
636;2.0281961000000592;2509
637;2.0312694999993255;2509
638;2.034128999999666;2508
639;2.037159100000281;2508
640;2.0402874000010343;2508
641;2.0435761000007915;2507
642;2.047486299999946;2508
643;2.051583700000265;2507
644;2.0550739000009344;2506
645;2.0585740999995323;2506
646;2.0625037999998312;2506
647;2.0665939999998955;2505
648;2.0704384000000573;2505
649;2.0730984000001627;2505
650;2.0760537999994995;2504
651;2.0790491999996448;2504
652;2.082019900000887;2504
653;2.084866499999407;2503
654;2.0870811000004323;2503
655;2.0903180000004795;2503
656;2.094484299999749;2503
657;2.0985753999993904;2502
658;2.1025007999996888;2502
659;2.1049387000002753;2501
660;2.108416799999759;2501
661;2.1121519999996963;2501
662;2.115136300000813;2501
663;2.118069199999809;2500
664;2.1210028999994393;2500
665;2.124073500001032;2500
666;2.127010700000028;2499
667;2.1290404000010312;2499
668;2.1319664000002376;2499
669;2.1354207000003953;2499
670;2.1391125000009197;2498
671;2.142356700000164;2497
672;2.145171300000584;2497
673;2.1481285999998363;2497
674;2.1511093999997684;2496
675;2.1538522000009834;2496
676;2.1569890000009764;2495
677;2.1600335000002815;2495
678;2.163123300000734;2495
679;2.1660859000003256;2494
680;2.1690001000006305;2494
681;2.171965400000772;2494
682;2.175019700000121;2494
683;2.177968399999372;2493
684;2.1800306999994064;2492
685;2.1830523000007815;2492
686;2.186137900000176;2492
687;2.1890137000009418;2491
688;2.192491899999368;2491
689;2.1953508999995393;2491
690;2.198100499999782;2490
691;2.200909999999567;2490
692;2.2029600000005303;2489
693;2.2049566999994568;2489
694;2.208210400000098;2489
695;2.2114940000010392;2489
696;2.2144045999993978;2488
697;2.2173149999998714;2488
698;2.2201036000005843;2488
699;2.2220830000005662;2487
700;2.2249781000009534;2488
701;2.2281302999999753;2487
702;2.2309872999994695;2486
703;2.233103700000356;2486
704;2.236143899999661;2486
705;2.237964699999793;2486
706;2.2411582999993698;2485
707;2.2439957999995386;2484
708;2.2474325000002864;2484
709;2.25152479999997;2484
710;2.2540554000006523;2483
711;2.257053100000121;2483
712;2.2601316000000224;2482
713;2.2632838000008633;2481
714;2.2661000000007334;2481
715;2.2689339999997173;2480
716;2.2707991000006587;2480
717;2.2731777999997576;2479
718;2.2761037000000215;2479
