;time;amplitude
0;0.0032083999994938495;2530
1;0.006620199999815668;2530
2;0.010526399999434943;2531
3;0.014404800000193063;2530
4;0.01705690000017057;2531
5;0.02052670000011858;2531
6;0.024667199999385048;2531
7;0.02862029999960214;2531
8;0.03113610000036715;2531
9;0.03403280000020459;2530
10;0.03762040000037814;2531
11;0.04156239999974787;2531
12;0.04561370000010356;2531
13;0.04815009999947506;2530
14;0.05111100000067381;2530
15;0.05443089999971562;2530
16;0.05761469999924884;2530
17;0.06145950000063749;2530
18;0.06416700000045239;2530
19;0.06711019999966084;2531
20;0.07126570000036736;2531
21;0.07523519999995187;2531
22;0.07923370000025898;2530
23;0.08216240000001562;2530
24;0.0853542999993806;2530
25;0.08851320000030682;2530
26;0.09223460000066552;2530
27;0.09608409999964351;2530
28;0.09894960000019637;2530
29;0.10084479999932228;2530
30;0.10439369999949122;2530
31;0.10837779999928898;2530
32;0.11136269999951764;2530
33;0.11410710000018298;2530
34;0.11700530000052822;2530
35;0.11895750000076077;2530
36;0.12252789999911329;2530
37;0.1261233999994147;2530
38;0.12903039999946486;2530
39;0.13197439999930793;2531
40;0.13534049999907438;2531
41;0.13851819999945292;2530
42;0.14222180000069784;2530
43;0.14519540000037523;2530
44;0.14797709999947983;2530
45;0.1499249000007694;2530
46;0.15348549999907846;2530
47;0.15648139999939303;2530
48;0.1591934999996738;2531
49;0.1620043999992049;2531
50;0.16413920000013604;2530
51;0.1667940000006638;2530
52;0.16894649999994726;2531
53;0.17215670000041428;2530
54;0.17523919999985083;2531
55;0.17813620000015362;2531
56;0.1809795999997732;2531
57;0.18389220000062778;2531
58;0.18722580000030575;2531
59;0.19049210000048333;2530
60;0.19450089999918418;2530
61;0.1971417000004294;2530
62;0.19999470000038855;2530
63;0.20322130000022298;2530
64;0.20707229999970878;2530
65;0.21006189999934577;2530
66;0.21293019999939133;2530
67;0.21592899999996007;2531
68;0.21820440000010421;2530
69;0.22138789999917208;2530
70;0.22446110000055342;2530
71;0.22723889999906532;2529
72;0.22987800000009884;2530
73;0.23192770000059681;2529
74;0.23396800000045914;2529
75;0.236964399999124;2529
76;0.23921159999918018;2530
77;0.24195700000018405;2530
78;0.243940799999109;2530
79;0.24589759999980743;2530
80;0.2489227000005485;2529
81;0.25083489999997255;2529
82;0.2531371000004583;2529
83;0.25731660000019474;2529
84;0.2613280000005034;2529
85;0.2639801000004809;2529
86;0.2659210999991046;2529
87;0.26783249999971304;2529
88;0.27023600000029546;2529
89;0.2745178000004671;2529
90;0.2785746999998082;2529
91;0.28097650000017893;2529
92;0.2829072999993514;2529
93;0.28513460000067425;2529
94;0.28846359999988636;2529
95;0.292465299999094;2529
96;0.29604010000002745;2530
97;0.29892909999944095;2530
98;0.3008442999998806;2529
99;0.3033324999996694;2529
100;0.30628210000031686;2529
101;0.30927949999932025;2529
102;0.3122098999992886;2529
103;0.31494849999944563;2529
104;0.31684909999967203;2529
105;0.3204604999991716;2529
106;0.3243645000002289;2529
107;0.3273460000000341;2528
108;0.33113589999993565;2528
109;0.33390549999967334;2528
110;0.33748390000073414;2528
111;0.3414673000006587;2528
112;0.34553280000000086;2528
113;0.3479466999997385;2527
114;0.3499277999999322;2527
115;0.3520183000000543;2527
116;0.35408359999928507;2527
117;0.35734279999996943;2527
118;0.3603440999995655;2527
119;0.36408839999967313;2526
120;0.36695510000026843;2526
121;0.3687694999989617;2526
122;0.37196960000073886;2526
123;0.3752206999997725;2526
124;0.37846910000007483;2526
125;0.3809581999994407;2526
126;0.3828604999998788;2526
127;0.38594670000020415;2526
128;0.38893559999996796;2526
129;0.392236600000615;2526
130;0.39519900000050256;2526
131;0.39711130000068806;2526
132;0.39980760000071314;2525
133;0.4030832000007649;2526
134;0.40609000000040396;2526
135;0.40890349999972386;2526
136;0.41089300000021467;2526
137;0.4128923999996914;2526
138;0.41594679999980144;2525
139;0.41814549999980954;2525
140;0.4213739999995596;2525
141;0.42445279999992636;2525
142;0.42735720000018773;2525
143;0.43112680000012915;2525
144;0.4340162999997119;2525
145;0.4369879999994737;2525
146;0.44016759999976784;2525
147;0.44307630000002973;2524
148;0.44590169999901264;2524
149;0.44895569999971485;2524
150;0.45084459999998217;2524
151;0.45282810000026075;2524
152;0.4561661000007007;2524
153;0.4588807000000088;2524
154;0.46196170000075654;2524
155;0.4640906000004179;2523
156;0.46689709999918705;2523
157;0.47004849999939324;2523
158;0.4730662999991182;2523
159;0.4762542999997095;2523
160;0.4789676000000327;2522
161;0.4819121999989875;2522
162;0.4839854000001651;2522
163;0.4860867999996117;2522
164;0.48880219999955443;2522
165;0.491259500000524;2522
166;0.4940470000001369;2521
167;0.49699759999930393;2521
168;0.4988854999992327;2521
169;0.5008256000000983;2521
170;0.5028158999994048;2521
171;0.5059349999992264;2521
172;0.5079480999993393;2521
173;0.5111629999992147;2521
174;0.5127883999994083;2521
175;0.5149397000004683;2520
176;0.5169224999990547;2520
177;0.5187623000001622;2520
178;0.5208758999997372;2520
179;0.5239416000003985;2520
180;0.5268474999993487;2520
181;0.5302059999994526;2519
182;0.5329299999993964;2519
183;0.5349227000006067;2519
184;0.5369496999992407;2519
185;0.5390272999993613;2519
186;0.5419113000007201;2519
187;0.5439740999991045;2519
188;0.5458383999994112;2519
189;0.5478812999990623;2519
190;0.5498024000007717;2519
191;0.552887699999701;2519
192;0.5562145000003511;2519
193;0.5592314999994414;2519
194;0.5619977999995172;2519
195;0.5649728999997023;2519
196;0.5679202999999688;2519
197;0.5699783000000025;2519
198;0.5730332999992243;2518
199;0.5761086999991676;2518
200;0.5789241000002221;2518
201;0.5819668999993155;2518
202;0.5839221999995061;2518
203;0.5870730000006006;2517
204;0.5901573999999528;2517
205;0.5931055999990349;2517
206;0.5958578999998281;2516
207;0.5989749999989726;2516
208;0.6019266999992396;2516
209;0.6107114999995247;2516
210;0.6198631999995996;2514
211;0.6410820000000967;2514
212;0.6479070999994292;2512
213;0.6499459999995452;2512
214;0.6519078999990597;2512
215;0.6537778000001708;2512
216;0.6559758999992482;2511
217;0.6590046999990591;2511
218;0.6617910000004485;2511
219;0.6639321000002383;2511
220;0.6660284999998112;2511
221;0.6677624999992986;2511
222;0.6697614000004251;2511
223;0.6719534000003478;2511
224;0.6740778000003047;2511
225;0.677252800000133;2510
226;0.6799293999993097;2510
227;0.6829450000004726;2510
228;0.6851040000001376;2510
229;0.6882912999990367;2510
230;0.6912828999993508;2509
231;0.6941384999990987;2508
232;0.6971849000001384;2508
233;0.6999797000007675;2508
234;0.7018740000003163;2508
235;0.7050739000005706;2507
236;0.7083949000007124;2507
237;0.7112945999997464;2506
238;0.7139984000004915;2506
239;0.7169140000005427;2507
240;0.7188901999998052;2506
241;0.7224248000002262;2506
242;0.7264895000007527;2505
243;0.7300462000002881;2505
244;0.7330280999995011;2504
245;0.7373236999992514;2504
246;0.7404700999995839;2503
247;0.7445002999993449;2502
248;0.7471538999998302;2502
249;0.749951300000248;2502
250;0.7518271999997523;2502
251;0.7540117999997165;2501
252;0.7570352999991883;2501
253;0.760133699999642;2501
254;0.762929599999552;2500
255;0.7659672999998293;2500
256;0.769000700000106;2500
257;0.7710525000002235;2499
258;0.7742490999989968;2499
259;0.7771726999999373;2499
260;0.7799567999991268;2498
261;0.7829469000007521;2498
262;0.7849590999994689;2498
263;0.7882833000003302;2497
264;0.7911841999994067;2497
265;0.79417629999989;2496
266;0.7969372999996267;2496
267;0.7989379999999073;2496
268;0.8009597000000213;2496
269;0.8044360000003508;2495
270;0.8085329999994428;2495
271;0.812173399999665;2494
272;0.8149520000006305;2494
273;0.8178709999992861;2494
274;0.8211783000006108;2494
275;0.8251887999995233;2494
276;0.8290364000004047;2493
277;0.8320235999999568;2493
278;0.8349106999994547;2493
279;0.8368993000003684;2493
280;0.8402752000001783;2492
281;0.8432314999990922;2492
282;0.845964099999037;2492
283;0.8489613999990979;2491
284;0.8519025999994483;2491
285;0.8551662999998371;2491
286;0.8583333999995375;2491
287;0.8615153999999166;2490
288;0.8639994000004663;2490
289;0.865876699999717;2489
290;0.8689085999994859;2489
291;0.8708771999990859;2489
292;0.8729860999992525;2488
293;0.8750084000002971;2488
294;0.8769806000000244;2488
295;0.8802118000003247;2488
296;0.8829064000001381;2487
297;0.886485700000776;2487
298;0.8893133999990823;2486
299;0.8923200999997789;2485
300;0.8953557000004366;2485
301;0.8979404999990948;2484
302;0.8998907999994117;2483
303;0.9031919999997626;2483
304;0.9061836000000767;2482
305;0.9092089000005217;2481
306;0.9121402999990096;2480
307;0.9149756999995589;2480
308;0.916983999999502;2480
309;0.9204695999997057;2480
310;0.9233160000003409;2480
311;0.9263190999990911;2479
312;0.9290270999990753;2479
313;0.9318975999995018;2478
314;0.9348494999994728;2478
315;0.9381241999999475;2477
316;0.9410654999992403;2477
317;0.9444867999991402;2477
318;0.9470443999998679;2476
319;0.9499226000007184;2476
320;0.9517976999995881;2476
321;0.9549872999996296;2476
322;0.9580432999991899;2475
323;0.9614574000006542;2475
324;0.9639987999998993;2474
325;0.9659080999990692;2474
326;0.9691057000000001;2474
327;0.9721568000004481;2473
328;0.9751990000004298;2473
329;0.9784495000003517;2473
330;0.9809789999999339;2473
331;0.9828949999991892;2473
332;0.9861270000001241;2472
333;0.9894884999994247;2472
334;0.9924608999990596;2471
335;0.9954342000000906;2470
336;0.9979669999993348;2470
337;0.999840899999981;2470
338;1.003045800000109;2470
339;1.0060417000004236;2469
340;1.0090503999999783;2469
341;1.0121352000005572;2469
342;1.014939200000299;2468
343;1.0168204999990849;2468
344;1.020465100000365;2468
345;1.024459599999318;2467
346;1.0285712999993848;2466
347;1.0309651999996277;2465
348;1.0329314999999042;2465
349;1.0365125000007538;2465
350;1.0404569000002084;2464
351;1.0444960999993782;2464
352;1.0470920000007027;2463
353;1.049913099999685;2463
354;1.0534867999995186;2462
355;1.057478999999148;2462
356;1.0614480000003823;2461
357;1.0640266999998858;2461
358;1.0669503999997687;2461
359;1.0700419999993755;2460
360;1.0734792000002926;2459
361;1.0774691000005987;2458
362;1.0801286000005348;2457
363;1.0829104000004008;2457
364;1.0850788000007014;2456
365;1.088400200000251;2456
366;1.0914811000002373;2455
367;1.0944696000005933;2455
368;1.0970051000003878;2454
369;1.0999568999995972;2454
370;1.1018041000006633;2453
371;1.1054874999990716;2453
372;1.1084468999997625;2453
373;1.1112608000003092;2452
374;1.1140020999991975;2451
375;1.1158312000006845;2451
376;1.118058199999723;2451
377;1.1214672999994946;2450
378;1.1243367999995826;2450
379;1.127301799999259;2449
380;1.1299139999991894;2449
381;1.1319571999993059;2448
382;1.1338617999990674;2448
383;1.1370791999997891;2447
384;1.1400823999993008;2447
385;1.1431252000002132;2446
386;1.1458734999996523;2446
387;1.147929999999178;2446
388;1.1499428000006446;2446
389;1.1519618999991508;2446
390;1.1551352999995288;2445
391;1.1582156999993458;2445
392;1.1612456000002567;2444
393;1.1639642999998614;2443
394;1.1658231000001251;2443
395;1.168114300000525;2443
396;1.171452999999019;2442
397;1.1754607999992004;2442
398;1.1790424999999232;2441
399;1.1819441999996343;2440
400;1.183972000000722;2440
401;1.1873266999991756;2439
402;1.1904744999992545;2438
403;1.1934750999989774;2438
404;1.1960006999997859;2437
405;1.1989740999997593;2437
406;1.2018867999995564;2437
407;1.2053374999995867;2436
408;1.2084897000004275;2435
409;1.211988900000506;2435
410;1.2150363999990077;2435
411;1.2182551999994757;2434
412;1.221514799999568;2434
413;1.2255081000002974;2433
414;1.2290962999995827;2433
415;1.2319759000001795;2432
416;1.2339907000005041;2432
417;1.2373088000003918;2432
418;1.2404853000007279;2431
419;1.2434718000004068;2431
420;1.2460107000006246;2430
421;1.248954299999241;2430
422;1.2511589000005188;2429
423;1.2542702999999165;2429
424;1.2574205000000802;2428
425;1.2604178999990836;2428
426;1.2642343000006804;2428
427;1.2669581999998627;2427
428;1.26994299999933;2427
429;1.2730723999993643;2426
430;1.276129599998967;2425
431;1.2790038000002824;2425
432;1.2819638999990275;2425
433;1.2839199999998527;2424
434;1.2871565999994345;2424
435;1.2901543000007223;2423
436;1.2931468000006134;2422
437;1.295971899999131;2422
438;1.2989522999996552;2421
439;1.3012032000006002;2420
440;1.304508799999894;2420
441;1.3084830999996484;2420
442;1.3113955999997415;2419
443;1.3139752999995835;2419
444;1.3159271999993507;2419
445;1.3194820999997319;2418
446;1.3224085999991075;2418
447;1.325476300000446;2417
448;1.3284707999991952;2417
449;1.330938099999912;2417
450;1.3328424999999697;2416
451;1.335126300000411;2416
452;1.3383790999996563;2415
453;1.341369499999928;2415
454;1.3443559000006644;2415
455;1.347048800000266;2414
456;1.3500480000002426;2414
457;1.3535150999996404;2413
458;1.3574986999992689;2412
459;1.3604145999997854;2411
460;1.3639284999990196;2411
461;1.3659692000001087;2411
462;1.3679243000005954;2410
463;1.3714681999990717;2410
464;1.3752311000007467;2410
465;1.3782031999999163;2409
466;1.3809958000001643;2408
467;1.3829220999996323;2408
468;1.3864785999994638;2408
469;1.3894684999995661;2407
470;1.3933469000003242;2406
471;1.397086599999966;2406
472;1.3998964999991586;2405
473;1.4029492999998183;2405
474;1.4060613000001467;2404
475;1.4089758999998594;2404
476;1.4119670000000042;2404
477;1.4141564999990806;2403
478;1.4169283999999607;2403
479;1.4203459000000294;2403
480;1.4234945000007428;2402
481;1.4274807999991026;2401
482;1.4302826999992249;2401
483;1.4329916999995476;2401
484;1.4361017999999603;2400
485;1.439089800000147;2400
486;1.442192200000136;2399
487;1.445358099999794;2398
488;1.447991600000023;2398
489;1.4499574000001303;2398
490;1.4521595000005618;2397
491;1.4555084000003262;2397
492;1.4595073000000411;2397
493;1.4619113999997353;2396
494;1.4639740000002348;2396
495;1.4659417999992002;2396
496;1.4679166999994777;2396
497;1.471256099999664;2396
498;1.474207600000227;2395
499;1.4774593000001914;2395
500;1.4803262000004906;2394
501;1.4829224000004615;2394
502;1.4849964000004547;2394
503;1.4883589999990363;2393
504;1.491284199999427;2392
505;1.4952260999998543;2392
506;1.4979849999999715;2392
507;1.4998811000004935;2392
508;1.5031321000005846;2392
509;1.5061170999997557;2391
510;1.5091188000005786;2391
511;1.512037099999361;2390
512;1.5151031000004878;2390
513;1.5181085000003804;2390
514;1.5211853000000701;2389
515;1.5240340999989712;2389
516;1.527185400000235;2389
517;1.5299957000006543;2388
518;1.5329982000002929;2388
519;1.535087399999611;2387
520;1.5382138000004488;2387
521;1.5412094999992405;2386
522;1.5442237999995996;2385
523;1.547103099999731;2385
524;1.5498585000004823;2384
525;1.553434899999047;2384
526;1.5564469000000827;2384
527;1.5593021999993653;2384
528;1.5620820999993157;2384
529;1.564981199999238;2383
530;1.566850400000476;2383
531;1.5702602000001207;2383
532;1.5732435999998415;2382
533;1.576018899999326;2382
534;1.578917900000306;2381
535;1.5818849999996019;2381
536;1.5838746999997966;2381
537;1.587260199999946;2381
538;1.5902676000005158;2380
539;1.5932563999995182;2380
540;1.5959204999999201;2379
541;1.5992089999999735;2379
542;1.6021598999996058;2379
543;1.6051191999995353;2378
544;1.6082241000003705;2378
545;1.611161599999832;2378
546;1.6139698999995744;2378
547;1.6158826999999292;2378
548;1.6193024999993213;2378
549;1.6223752000005334;2377
550;1.6251355000003969;2377
551;1.6281447000001208;2376
552;1.6312261999992188;2376
553;1.6342640000002575;2375
554;1.6372105999998894;2375
555;1.6402077999991889;2374
556;1.6431990000000951;2374
557;1.6459477999997034;2373
558;1.6489142999998876;2373
559;1.6523901000000478;2373
560;1.655325300000186;2372
561;1.658387199999197;2372
562;1.6611577999992733;2372
563;1.6640090999990207;2372
564;1.6658907000000909;2372
565;1.6694719000006444;2372
566;1.6725148999994417;2371
567;1.6754923000007693;2371
568;1.6785412999997789;2370
569;1.6809503999993467;2370
570;1.6845150999997713;2370
571;1.6882296999992832;2369
572;1.6914624000000913;2368
573;1.6944944999995641;2368
574;1.697091800000635;2367
575;1.6999438000002556;2367
576;1.7034401000000798;2368
577;1.7063297999993665;2367
578;1.7093232000006537;2367
579;1.7119860999991943;2367
580;1.7151142999991862;2366
581;1.7181340000006458;2366
582;1.7212607999990723;2366
583;1.7239396999993915;2366
584;1.7272644999993645;2366
585;1.7300078000007488;2365
586;1.732902699999613;2365
587;1.7361153999991075;2364
588;1.73910799999976;2364
589;1.7420982999992702;2364
590;1.7449648000001616;2364
591;1.7471253999992769;2363
592;1.75017520000074;2363
593;1.7532257999991998;2364
594;1.7559481000007509;2364
595;1.7582292000006419;2364
596;1.7612202999989677;2364
597;1.7639667999992525;2364
598;1.7670803000000888;2363
599;1.770093299999644;2363
600;1.773122599999624;2363
601;1.7761609999997745;2363
602;1.7789773999993486;2363
603;1.7823050000006333;2363
604;1.7852495000006456;2362
605;1.788124799999423;2363
606;1.7910711000004085;2362
607;1.7930964999995922;2362
608;1.7959723000003578;2362
609;1.7978557000005821;2362
610;1.8002261000001454;2362
611;1.80340889999934;2362
612;1.806355499998972;2361
613;1.810406000000512;2361
614;1.8128928000005544;2361
615;1.8163488999998663;2360
616;1.8195238999996945;2360
617;1.8229780000001483;2360
618;1.8265363999998954;2359
619;1.8303715999991255;2359
620;1.8333607999993546;2358
621;1.836209200000667;2358
622;1.8391964999991615;2358
623;1.842191499999899;2357
624;1.844893499999671;2357
625;1.8468794999989768;2357
626;1.8488968999990902;2356
627;1.850914599999669;2356
628;1.8529469999994035;2356
629;1.8566074999998818;2356
630;1.8606918000004953;2356
631;1.8630425999999716;2355
632;1.865893700000015;2355
633;1.8689630999997462;2355
634;1.8719584999998915;2355
635;1.8750734999994165;2354
636;1.8782028000005084;2354
637;1.881052599999748;2354
638;1.8840932000002795;2354
639;1.8874799000004714;2354
640;1.8905477999996947;2354
641;1.894521899999745;2354
642;1.8970057000005909;2354
643;1.900184399999489;2354
644;1.9030397000005905;2354
645;1.9061194999994768;2354
646;1.909118399998988;2353
647;1.9121125000001484;2353
648;1.915330100000574;2353
649;1.9181730999989668;2353
650;1.9209912000005716;2352
651;1.922948899999028;2352
652;1.9249581000003673;2352
653;1.9269475000000966;2352
654;1.928924100000586;2351
655;1.9321507999993628;2351
656;1.9352863999993133;2350
657;1.9381572999991477;2350
658;1.941014300000461;2350
659;1.9439277000001312;2350
660;1.9471011999994516;2350
661;1.9499804999995831;2350
662;1.9519703000005393;2350
663;1.9539420999990398;2350
664;1.9569178000001557;2349
665;1.958958100000018;2349
666;1.9608881000003748;2349
667;1.9638620000005176;2349
668;1.965990700000475;2349
669;1.967939000000115;2349
670;1.9712572999997064;2348
671;1.974116999999751;2348
672;1.9770606000001862;2348
673;1.9801158999998734;2348
674;1.9829747000003408;2348
675;1.9863031000004412;2348
676;1.98914060000061;2348
677;1.9922576999997545;2348
678;1.9948129000003973;2348
679;1.9970776999998634;2348
680;2.0002549000000727;2348
681;2.0031008000005386;2348
682;2.0059911999996984;2348
683;2.009226399999534;2348
684;2.011982599999101;2348
685;2.015110599999389;2348
686;2.0181618999995408;2347
687;2.0210229999993317;2347
688;2.0241377999991528;2347
689;2.0271711999994295;2347
690;2.0300583000007464;2347
691;2.0330372999997053;2347
692;2.035930100000769;2348
693;2.0392013999990013;2347
694;2.0421740999991016;2347
695;2.044810100000177;2347
696;2.046956300000602;2347
697;2.048959699999614;2347
698;2.0509564000003593;2347
699;2.0541892999990523;2347
700;2.057397200000196;2347
701;2.0606341999991855;2347
702;2.0629938000001857;2347
703;2.0651326999995945;2347
704;2.067949000000226;2346
705;2.0699542999991536;2346
706;2.0729207999993378;2346
707;2.0750107999992906;2347
708;2.0770028000006278;2347
709;2.0788618000005954;2346
710;2.0808980999991036;2346
711;2.0828946999990876;2346
712;2.084958600000391;2346
713;2.0879724999995233;2345
714;2.0910980999997264;2346
715;2.094205999999758;2345
716;2.0970233000007283;2345
