;time;amplitude
0;0.0038797000015620142;2396
1;0.0069500000008702045;2394
2;0.010267600000588573;2393
3;0.01297080000040296;2392
4;0.016998300001432654;2390
5;0.020968599999832804;2388
6;0.02392370000052324;2387
7;0.027121500001157983;2385
8;0.031149700000241864;2384
9;0.03423250000014377;2382
10;0.03807700000106706;2380
11;0.040844799999831594;2378
12;0.04495900000074471;2377
13;0.04829349999999977;2375
14;0.05245990000003076;2373
15;0.05586350000157836;2371
16;0.05893900000046415;2369
17;0.062050800001088646;2367
18;0.06494190000012168;2365
19;0.06802390000120795;2364
20;0.07097460000113642;2362
21;0.07497040000089328;2360
22;0.07806490000075428;2358
23;0.08201510000071721;2356
24;0.08576170000014827;2353
25;0.08878189999995811;2351
26;0.0917979000005289;2350
27;0.09496730000137177;2348
28;0.09791840000070806;2347
29;0.10067570000137493;2345
30;0.1036128000014287;2344
31;0.10688699999991513;2342
32;0.10962280000057945;2340
33;0.1125953999999183;2339
34;0.11458900000070571;2338
35;0.11780809999982012;2337
36;0.12065870000151335;2335
37;0.12396580000131507;2334
38;0.12710800000058953;2332
39;0.1301591000010376;2331
40;0.13384450000012293;2330
41;0.13668020000113756;2328
42;0.13973369999985152;2326
43;0.14284500000030675;2325
44;0.14579670000057376;2323
45;0.14877500000147847;2321
46;0.15208970000094268;2320
47;0.15483800000038173;2319
48;0.15801600000122562;2317
49;0.16109120000146504;2316
50;0.16393340000104217;2315
51;0.16679850000036822;2314
52;0.1696406000010029;2313
53;0.17283880000104546;2311
54;0.1757247000005009;2309
55;0.17883960000108345;2308
56;0.18174110000109067;2306
57;0.1851252000014938;2305
58;0.18791400000009162;2304
59;0.19078360000094108;2302
60;0.1937584000006609;2301
61;0.19664940000075148;2300
62;0.19966980000026524;2298
63;0.20153340000069875;2297
64;0.20353680000152963;2296
65;0.20669060000000172;2295
66;0.21005570000124862;2294
67;0.21403939999981958;2293
68;0.2165476000009221;2292
69;0.21963760000107868;2291
70;0.22294550000151503;2290
71;0.22596850000081758;2289
72;0.22900579999986803;2288
73;0.2316597000008187;2287
74;0.2350549000002502;2286
75;0.2379454000001715;2285
76;0.24082070000076783;2283
77;0.24368200000026263;2282
78;0.24695640000027197;2282
79;0.2498133000008238;2281
80;0.25249280000025465;2280
81;0.2558775000015885;2279
82;0.2601849000002403;2278
83;0.26359860000047775;2277
84;0.266685000000507;2276
85;0.26848750000135624;2275
86;0.2717456999998831;2274
87;0.2746588999998494;2273
88;0.27763380000033067;2272
89;0.28058340000097814;2271
90;0.28258610000011686;2270
91;0.28458649999993213;2269
92;0.28668850000030943;2269
93;0.2898570000015752;2268
94;0.2925900999998703;2268
95;0.2945872000000236;2267
96;0.2965620000013587;2266
97;0.2985891000007541;2266
98;0.30056640000111656;2265
99;0.3024823000014294;2265
100;0.305580900001587;2264
101;0.30756950000068173;2263
102;0.3096086000005016;2263
103;0.31160369999997783;2263
104;0.3136035000006814;2262
105;0.31560690000151226;2262
106;0.3176217000000179;2262
107;0.31952890000138723;2261
108;0.32168820000151754;2261
109;0.3247023000003537;2261
110;0.327608000001419;2260
111;0.3304262000001472;2259
112;0.332409300001018;2259
113;0.33437750000121014;2258
114;0.33664910000152304;2258
115;0.33981800000037765;2258
116;0.3429764000011346;2257
117;0.3469994000006409;2257
118;0.3499929000008706;2256
119;0.3540327000009711;2255
120;0.3580249000006006;2255
121;0.36101140000027954;2254
122;0.36399810000148136;2254
123;0.36698170000090613;2253
124;0.3695889000009629;2252
125;0.3727907000011328;2252
126;0.3760398000013083;2252
127;0.3789745000012772;2251
128;0.381967799999984;2251
129;0.38498190000063914;2250
130;0.38782700000047043;2250
131;0.3909763000010571;2250
132;0.39398720000099274;2249
133;0.3969741000000795;2249
134;0.4009769000003871;2249
135;0.40370160000020405;2249
136;0.40667060000123456;2248
137;0.40999180000108026;2248
138;0.41294569999990927;2248
139;0.41582110000126704;2248
140;0.4188242000000173;2248
141;0.42178880000028585;2248
142;0.4247332000013557;2248
143;0.4276489000003494;2248
144;0.4306644000007509;2248
145;0.4336867000001803;2248
146;0.43660430000090855;2248
147;0.43860769999992044;2249
148;0.4405873000014253;2249
149;0.4426125999998476;2249
150;0.44592499999998836;2249
151;0.44911210000100255;2248
152;0.45194120000087423;2249
153;0.45491150000088965;2248
154;0.45769170000130543;2248
155;0.46074420000149985;2248
156;0.4638470000008965;2248
157;0.4665435000006255;2248
158;0.46950939999987895;2249
159;0.47188090000054217;2249
160;0.4749396000006527;2249
161;0.47794170000088343;2249
162;0.4809065000008559;2250
163;0.48414840000077675;2250
164;0.4881081000003178;2249
165;0.4910419000007096;2249
166;0.49405250000017986;2249
167;0.496563700000479;2250
168;0.4997027999997954;2250
169;0.5026695000015025;2250
170;0.5057133000009344;2251
171;0.5087020000009943;2250
172;0.5117112000007182;2251
173;0.5148222000007081;2251
174;0.5180595000001631;2252
175;0.5207676999998512;2252
176;0.5237775000005058;2252
177;0.5270872000000963;2253
178;0.5300929000004544;2254
179;0.5330950000006851;2254
180;0.5356746000015846;2254
181;0.5388818999999785;2255
182;0.5418727000014769;2255
183;0.5449075000015;2255
184;0.547855000000709;2255
185;0.5507813000003807;2256
186;0.5537686000006943;2256
187;0.5568876000015734;2256
188;0.5595948999998654;2257
189;0.5627683000002435;2258
190;0.5657709000006435;2258
191;0.5688284000007116;2259
192;0.5729724000011629;2260
193;0.5757131000009394;2261
194;0.5787748000002466;2261
195;0.5818052000013267;2262
196;0.5848421999999118;2262
197;0.587819500000478;2263
198;0.5908223000005819;2263
199;0.5938321000012365;2263
200;0.5968549000008352;2264
201;0.5999172000010731;2264
202;0.6026546000011876;2265
203;0.6055593000000954;2265
204;0.6088995999998588;2266
205;0.6117131999999401;2267
206;0.6146985000013956;2268
207;0.6177038000005268;2269
208;0.6207685999997921;2270
209;0.6237598000006983;2270
210;0.6267809000000852;2271
211;0.6298825000012584;2272
212;0.6328957000005175;2273
213;0.635651800001142;2273
214;0.6387704000007943;2274
215;0.641573500000959;2275
216;0.6445681000004697;2275
217;0.6477250000007189;2276
218;0.6507235000008222;2276
219;0.653796800001146;2278
220;0.656772500000443;2278
221;0.6597900000015215;2279
222;0.6626857000010205;2280
223;0.6656302999999753;2281
224;0.6686103000010917;2282
225;0.6716770000002725;2283
226;0.6747164000007615;2284
227;0.6778250000006665;2286
228;0.6807576000010158;2287
229;0.6836250000014843;2287
230;0.6867791000004217;2288
231;0.6897230000013224;2289
232;0.6927511000012601;2290
233;0.6956703000014386;2291
234;0.6985789999998815;2293
235;0.7007178000003478;2294
236;0.7037006000009569;2295
237;0.7066860000013548;2296
238;0.7096849999998085;2297
239;0.7128031000011106;2298
240;0.7167872999998508;2300
241;0.7197122000015952;2301
242;0.7228024000014557;2303
243;0.7257762999997794;2304
244;0.7287457000002178;2305
245;0.73175430000083;2306
246;0.7347537000005104;2307
247;0.7377035000008618;2309
248;0.7407204999999522;2310
249;0.7437350000000151;2311
250;0.7467981999998301;2312
251;0.7497882000006939;2314
252;0.752513600000384;2315
253;0.7547240000003512;2316
254;0.7577231000013853;2317
255;0.7607200000002194;2318
256;0.7637227000013809;2320
257;0.7667815000004339;2321
258;0.7696348999998008;2323
259;0.7729329000012513;2324
260;0.7760303000013664;2325
261;0.7788732000008167;2326
262;0.7819256000002497;2328
263;0.7846429000001081;2329
264;0.7869636000013998;2330
265;0.7896375000000262;2331
266;0.7925235000002431;2333
267;0.7945920000001934;2334
268;0.7971102000010433;2335
269;0.8011697000001732;2336
270;0.8037340000009863;2338
271;0.8067331000002014;2340
272;0.8101161000013235;2341
273;0.8137739000012516;2342
274;0.817119500001354;2344
275;0.8210835000008956;2345
276;0.8235719000003883;2347
277;0.8268280000011146;2348
278;0.8297177000004012;2350
279;0.8327964000000065;2351
280;0.8345863000013196;2352
281;0.8367266000004747;2353
282;0.8396910000010394;2354
283;0.8416281999998318;2355
284;0.8447027000001981;2356
285;0.8467570000011619;2357
286;0.8497268999999505;2358
287;0.8526940000010654;2359
288;0.8561638999999559;2361
289;0.8604129000013927;2363
290;0.8642434000012145;2365
291;0.8682765000012296;2367
292;0.872100300000966;2369
293;0.8765785000014148;2371
294;0.8812271000006149;2374
295;0.8851406000012503;2376
296;0.8887766000007105;2378
297;0.8920218000002933;2379
298;0.8952321000015218;2382
299;0.8993029000012029;2384
300;0.9029437000008329;2386
301;0.9057090000005701;2388
302;0.909138000000894;2389
303;0.9132288000000699;2392
304;0.9155901000012818;2394
305;0.9187632000011945;2395
306;0.9217733000004955;2397
307;0.9248107000003074;2399
308;0.9279674999997951;2401
309;0.9310702000002493;2403
310;0.9339466000001266;2404
311;0.9376432000008208;2406
312;0.9410157000002073;2407
313;0.9441854000015155;2409
314;0.9481132000000798;2411
315;0.9511084000005212;2413
316;0.9538073000003351;2415
317;0.9566635999999562;2416
318;0.9599195000009786;2418
319;0.9630020000004151;2420
320;0.9660475000000588;2421
321;0.9688373000008141;2423
322;0.9716920999999274;2424
323;0.9750113999998575;2426
324;0.9781677999999374;2428
325;0.9820206000003964;2429
326;0.9850203000005422;2431
327;0.9878336000001582;2432
328;0.9907085000013467;2434
329;0.9936587000011059;2436
330;0.9957260999999562;2437
331;0.9990956000001461;2438
332;1.0016566000012972;2440
333;1.0037330000013753;2441
334;1.006788000000597;2442
335;1.010140300000785;2444
336;1.0128132000008918;2446
337;1.0155748000015592;2448
338;1.018576899999971;2450
339;1.0208689000010054;2451
340;1.0238384000003862;2453
341;1.0266577000002144;2454
342;1.0295721000002231;2456
343;1.031643800000893;2457
344;1.0347006000010879;2458
345;1.0368302000006224;2460
346;1.0397886999999173;2461
347;1.0430721000011545;2463
348;1.0455919000014546;2464
349;1.0491641000007803;2466
350;1.0528651000004174;2468
351;1.0557427000003372;2470
352;1.0591242000009515;2471
353;1.0630839000004926;2473
354;1.0660603000014817;2474
355;1.0685336000005918;2476
356;1.0708725000004051;2477
357;1.07370980000087;2479
358;1.0766495000007126;2480
359;1.079596200001106;2482
360;1.0817438000012771;2484
361;1.0847407000001112;2485
362;1.087773900000684;2486
363;1.090736400001333;2488
364;1.09373720000076;2490
365;1.0967097000011563;2491
366;1.0997919000001275;2493
367;1.1025800000006711;2495
368;1.1056549000004452;2496
369;1.1091592000011588;2498
370;1.1130325000012817;2500
371;1.1171449000012217;2502
372;1.1197239000011905;2504
373;1.1228242000015598;2505
374;1.1259313999998994;2507
375;1.129051600000821;2508
376;1.1319409000007;2510
377;1.1350541000010708;2512
378;1.1377552000012656;2513
379;1.140845400001126;2515
380;1.1437960000002931;2517
381;1.1469891000015195;2518
382;1.14981970000008;2520
383;1.1526088999999047;2521
384;1.1557278000000224;2523
385;1.158618600000409;2524
386;1.1616578000011941;2525
387;1.1636395000004995;2526
388;1.1656495000006544;2527
389;1.1677145000012388;2528
390;1.1713251000001037;2529
391;1.1738626000005752;2531
392;1.1769699000014953;2533
393;1.1799250000003667;2535
394;1.1829937000002246;2536
395;1.1855221000005258;2537
396;1.1889523999998346;2539
397;1.1916767000002437;2541
398;1.1948776000008365;2542
399;1.1977940000015224;2543
400;1.2009443000006286;2545
401;1.2039082999999664;2546
402;1.2067430000006425;2548
403;1.209760700001425;2549
404;1.2128036000012798;2550
405;1.2158467000008386;2551
406;1.2185057000006054;2553
407;1.220927100001063;2553
408;1.223830100001578;2555
409;1.226748500001122;2556
410;1.230109199999788;2557
411;1.232775100001163;2559
412;1.235500000000684;2560
413;1.2376411000004737;2561
414;1.2409385000009934;2561
415;1.2437815000012051;2563
416;1.2456719000001613;2564
417;1.2476661000000604;2564
418;1.2506405000003724;2565
419;1.254013900001155;2566
420;1.2567269999999553;2567
421;1.2597878000015044;2568
422;1.2628824000003078;2569
423;1.2657618000012008;2570
424;1.2685094000007666;2572
425;1.270838400001594;2573
426;1.2736487000001944;2574
427;1.2767820000008214;2575
428;1.2797349000011309;2576
429;1.282872200001293;2578
430;1.2854614000007132;2579
431;1.2878428000003623;2580
432;1.2908091000008426;2581
433;1.293763300000137;2582
434;1.2967881000004127;2583
435;1.29976280000119;2584
436;1.3025619000000006;2585
437;1.305801500000598;2586
438;1.3086330000005546;2586
439;1.3116719000008743;2588
440;1.314762800000608;2588
441;1.3179182000003493;2589
442;1.3212445000008302;2590
443;1.323647000001074;2591
444;1.327102900000682;2591
445;1.3301792000002024;2592
446;1.3340314000015496;2593
447;1.3365608000003704;2594
448;1.3398715000002994;2594
449;1.3430328000013105;2595
450;1.3456529000013688;2596
451;1.3476401000007172;2597
452;1.3510633000005328;2598
453;1.3539092999999411;2598
454;1.3566802000004827;2599
455;1.3601823000008153;2599
456;1.3642024000000674;2600
457;1.3680874000001495;2601
458;1.370818400000644;2601
459;1.3736199000013585;2602
460;1.3768969000011566;2602
461;1.3798671000004106;2603
462;1.382646800000657;2604
463;1.3855444000000716;2604
464;1.3886767000003601;2605
465;1.3906095000002097;2606
466;1.393638200001078;2606
467;1.3966362000010122;2607
468;1.3998926000003848;2608
469;1.4025557000004483;2609
470;1.4046288000008644;2609
471;1.406738800000312;2610
472;1.409994600000573;2610
473;1.4128018000010343;2611
474;1.4156775000010384;2611
475;1.4187134000003425;2611
476;1.4217846999999892;2612
477;1.4248827999999776;2612
478;1.4279681000007258;2613
479;1.4321188000012626;2613
480;1.4350868000001356;2614
481;1.4377992999998241;2614
482;1.441031300000759;2615
483;1.4440653000001475;2615
484;1.4470423000002484;2616
485;1.449658500001533;2616
486;1.4527194000002055;2616
487;1.4557127000007313;2616
488;1.45902180000121;2617
489;1.4620298000008916;2617
490;1.4650399000001926;2617
491;1.4680002000004606;2618
492;1.4709631000005174;2618
493;1.4738117000015336;2618
494;1.476869500000248;2618
495;1.4795904000002338;2618
496;1.4816614000010304;2618
497;1.4852105999998457;2618
498;1.4891953000005742;2618
499;1.4935927000005904;2618
500;1.497104500000205;2617
501;1.5025353000000905;2617
502;1.5058152000001428;2617
503;1.508953600001405;2617
504;1.5118354000005638;2617
505;1.5149543000006815;2617
506;1.5178672000001825;2617
507;1.5208692000014707;2618
508;1.5238683000006858;2618
509;1.526854200001253;2618
510;1.5300812000004953;2618
511;1.5331844000011188;2618
512;1.5370019000001776;2617
513;1.5400027000014234;2616
514;1.5427807000014582;2616
515;1.5460870000006253;2615
516;1.5490182000012283;2615
517;1.5521064000004117;2615
518;1.5561756000006426;2614
519;1.5587475000011182;2614
520;1.5621907000004285;2614
521;1.5661988000010751;2614
522;1.5700341000010667;2614
523;1.5731423000015639;2613
524;1.577174100000775;2613
525;1.5801922000009654;2612
526;1.5842069999998785;2611
527;1.5866753999998764;2611
528;1.5896505000000616;2610
529;1.5928755000004458;2609
530;1.5959514000005584;2609
531;1.5988046000002214;2608
532;1.6018264000013005;2607
533;1.6049359000007826;2607
534;1.6081743000013375;2606
535;1.6118416999997862;2606
536;1.6150286000010965;2605
537;1.6187494000005245;2606
538;1.6220050000010815;2605
539;1.6260853000003408;2605
540;1.6303461000006791;2604
541;1.6343078000008973;2603
542;1.636931300001379;2602
543;1.641308600001139;2602
544;1.6452265000007174;2601
545;1.6492591000005632;2600
546;1.6519920999999158;2600
547;1.6551964999998745;2599
548;1.6582061000008252;2599
549;1.6611953000010544;2598
550;1.6640181000002485;2598
551;1.6670487000010326;2597
552;1.6697526000007201;2597
553;1.6729332000013528;2596
554;1.6761857000001328;2595
555;1.6802676000006613;2594
556;1.6839269000010972;2594
557;1.6870104000008723;2593
558;1.6901792000007845;2592
559;1.6942044000006717;2591
560;1.6982926000000589;2590
561;1.7022118000004411;2589
562;1.7058795000011742;2588
563;1.708991800000149;2587
564;1.711856900001294;2587
565;1.7157537000002776;2586
566;1.718682800001261;2585
567;1.7217278000007354;2585
568;1.7252886000005674;2584
569;1.7291447000006883;2583
570;1.7328956000001199;2582
571;1.7357194000014715;2581
572;1.7378822999999102;2580
573;1.740834199999881;2579
574;1.7437098000009428;2579
575;1.7467451000011351;2578
576;1.7500724000001355;2577
577;1.7528883000013593;2576
578;1.7560496000005514;2575
579;1.7591542999998637;2574
580;1.7620176000000356;2573
581;1.7651000000005297;2572
582;1.7679380999998102;2571
583;1.7708227000002807;2570
584;1.7740107999998145;2569
585;1.7765539000010904;2568
586;1.7798219000014797;2567
587;1.7827753000001394;2566
588;1.7856537000006938;2564
589;1.7887860000009823;2563
590;1.7917858000000706;2562
591;1.7947553000012704;2560
592;1.7980311999999685;2559
593;1.800816599999962;2557
594;1.8038388000004488;2556
595;1.8067424000000756;2555
596;1.8099204000009195;2553
597;1.812694800000827;2551
598;1.8156905000014376;2550
599;1.8175484000003053;2549
600;1.819791100000657;2548
601;1.8215478000001895;2547
602;1.8235538000008091;2546
603;1.8255997000014759;2545
604;1.8278199000014865;2544
605;1.8306365000007645;2543
606;1.8339280000000144;2542
607;1.8369376000009652;2540
608;1.8402045000002545;2539
609;1.8427335000014864;2538
610;1.8461348000000726;2537
611;1.849164799999926;2536
612;1.8530330000012327;2534
613;1.8559175999998843;2533
614;1.8587946000006923;2532
615;1.8616765000006126;2530
616;1.8648576000014145;2528
617;1.867827699999907;2527
618;1.870988300001045;2525
619;1.8738669000013033;2524
620;1.8767098000007536;2522
621;1.8796425000000454;2521
622;1.882838500001526;2520
623;1.8855672999998205;2519
624;1.8887828000006266;2517
625;1.8917039000007208;2516
626;1.8945989000003465;2514
627;1.8978619999998045;2513
628;1.9013192000002164;2512
629;1.9036732000004122;2510
630;1.9066861999999674;2509
631;1.9101268000013079;2508
632;1.9132526000012149;2506
633;1.917120200001591;2504
634;1.919573400000445;2502
635;1.922862500001429;2501
636;1.9258110000009765;2500
637;1.928773600000568;2498
638;1.931484000000637;2497
639;1.9337298999998893;2495
640;1.9355138999999326;2495
641;1.9377818000011757;2494
642;1.940949300000284;2493
643;1.945015200000853;2492
644;1.9479973000015889;2490
645;1.950640700000804;2488
646;1.9536974000002374;2486
647;1.9568009000013262;2485
648;1.9598953000004258;2483
649;1.962995600000795;2481
650;1.9656709999999293;2480
651;1.9678093000002264;2479
652;1.9707921000008355;2478
653;1.9737667999997939;2476
654;1.9768551000015577;2474
655;1.9798537000006036;2472
656;1.9826764000008552;2471
657;1.9856515000010404;2469
658;1.9889302999999927;2467
659;1.9915780000010272;2466
660;1.9945655000010447;2464
661;1.9967450000003737;2462
662;1.999752300000182;2461
663;2.002635900000314;2459
664;2.0058852000001934;2458
665;2.0088625000007596;2456
666;2.0120000000006257;2454
667;2.014728100000866;2452
668;2.0175474000006943;2451
669;2.019722000000911;2450
670;2.0225206000013713;2449
671;2.024489999999787;2448
672;2.0265018999998574;2447
673;2.028601300000446;2446
674;2.03164199999992;2444
675;2.0335676000013336;2443
676;2.035593100001279;2442
677;2.0376333000003797;2441
678;2.0406387000002724;2439
679;2.0426210000005085;2437
680;2.0446059000005334;2436
681;2.046625099999801;2435
682;2.0485931000002893;2434
683;2.050578600001245;2433
684;2.052583400000003;2432
685;2.0557313000008435;2430
686;2.0586303000000044;2429
687;2.0606423999997787;2427
688;2.0625618000012764;2426
689;2.06457440000122;2426
690;2.0666111999998975;2425
691;2.069905199999994;2423
692;2.072607699999935;2422
693;2.074580700000297;2421
694;2.076571600000534;2420
695;2.0785778000008577;2419
696;2.080590100000336;2418
697;2.0826133999999;2416
698;2.0848624000009295;2415
699;2.087641900001472;2414
700;2.08960720000141;2413
701;2.091611900001226;2412
702;2.0936434000013833;2410
703;2.095550000000003;2409
704;2.0976428000012675;2408
705;2.099606900001163;2407
706;2.1014744000003702;2406
707;2.10355250000066;2405
708;2.1068132000000332;2403
709;2.10958170000049;2402
710;2.1116235999998025;2401
711;2.1135047000007035;2400
712;2.1154934000005596;2399
713;2.1174477000004117;2398
714;2.1197799000001396;2397
715;2.1225551000006817;2395
716;2.12463150000076;2394
