;time;amplitude
0;0.005317600000125822;2362
1;0.01029259999995702;2358
2;0.015240599999742699;2354
3;0.020295500000429456;2351
4;0.025231499999790685;2346
5;0.030268299999079318;2342
6;0.03589309999915713;2337
7;0.04099289999976463;2334
8;0.04629969999950845;2330
9;0.050694100000328035;2326
10;0.05557520000002114;2323
11;0.06084009999904083;2319
12;0.0649530999999115;2315
13;0.07005310000022291;2311
14;0.07508149999921443;2307
15;0.0800096000002668;2303
16;0.08501369999976305;2299
17;0.08939199999986158;2295
18;0.09401989999969373;2291
19;0.0990282999991905;2288
20;0.10338559999945574;2285
21;0.1080136999989918;2281
22;0.11277960000006715;2277
23;0.11799119999886898;2274
24;0.12245040000016161;2271
25;0.12705149999965215;2268
26;0.13200080000024172;2264
27;0.13632089999919117;2261
28;0.14089849999982107;2258
29;0.14595819999885862;2255
30;0.150861399999485;2252
31;0.15494289999878674;2250
32;0.15881520000039018;2247
33;0.16279430000031425;2245
34;0.1664746999995259;2243
35;0.170968599999469;2241
36;0.174806199998784;2238
37;0.1788218000001507;2236
38;0.18268689999968046;2233
39;0.18690439999954833;2231
40;0.19069149999995716;2229
41;0.19492449999961536;2226
42;0.19991169999957492;2224
43;0.20497339999928954;2221
44;0.20989670000017213;2219
45;0.2143350999995164;2217
46;0.2188733000002685;2215
47;0.22383329999865964;2213
48;0.22781810000014957;2211
49;0.23187729999881412;2210
50;0.23691229999894858;2209
51;0.24084939999920607;2207
52;0.24489059999905294;2206
53;0.24886179999884916;2204
54;0.2538535999992746;2203
55;0.2588517000003776;2201
56;0.26332709999951476;2199
57;0.26785910000035074;2198
58;0.27238819999911357;2197
59;0.2764119999992545;2196
60;0.2809366000001319;2194
61;0.2858952999995381;2192
62;0.29077499999948486;2191
63;0.2945022000003519;2189
64;0.29884709999896586;2188
65;0.3027353999987099;2186
66;0.30637079999905836;2185
67;0.3109064000000217;2184
68;0.31587669999862555;2183
69;0.31987300000037067;2182
70;0.32338700000036624;2181
71;0.32791269999870565;2181
72;0.3328942999996798;2180
73;0.33785059999900113;2180
74;0.34178439999959664;2179
75;0.3457715999993525;2179
76;0.3509109999995417;2178
77;0.3553327999998146;2178
78;0.3597518999995373;2178
79;0.36339330000009795;2178
80;0.36790929999915534;2178
81;0.3734021999989636;2178
82;0.37784110000029614;2178
83;0.38186510000014096;2178
84;0.38624150000032387;2178
85;0.3892161000003398;2178
86;0.39367809999930614;2178
87;0.39754030000040075;2179
88;0.4015531999993982;2178
89;0.40504940000028;2179
90;0.40917809999882593;2179
91;0.41320009999981266;2179
92;0.4163752000004024;2179
93;0.42022050000014133;2180
94;0.42297859999962384;2180
95;0.4263930999986769;2181
96;0.42928679999931774;2181
97;0.4323108999997203;2182
98;0.4351291000002675;2182
99;0.43799419999959355;2182
100;0.44123129999934463;2183
101;0.4442271999996592;2184
102;0.447227999999086;2184
103;0.45025109999915003;2185
104;0.45306299999901967;2186
105;0.456019399998695;2186
106;0.4592726999999286;2187
107;0.46228530000007595;2188
108;0.46527570000034757;2188
109;0.46826469999905385;2189
110;0.47097589999975753;2190
111;0.4742764000002353;2191
112;0.477289299999029;2192
113;0.48027729999921576;2193
114;0.48333629999979166;2194
115;0.4858134999994945;2195
116;0.4890546999995422;2196
117;0.4920462999998563;2197
118;0.49567019999994955;2198
119;0.49947509999947215;2200
120;0.5035265999995318;2201
121;0.5065190999994229;2202
122;0.510525300000154;2204
123;0.5145237999986421;2205
124;0.518523799999457;2206
125;0.5224918999992951;2208
126;0.526548300000286;2210
127;0.5305544000002556;2211
128;0.5345345999994606;2213
129;0.5380600999997114;2214
130;0.5415001000001212;2216
131;0.5455246999990777;2217
132;0.5489935999994486;2219
133;0.552087299998675;2221
134;0.5549171000002389;2222
135;0.5582342999987304;2223
136;0.5612320000000182;2224
137;0.5640378999996756;2226
138;0.5670825999986846;2227
139;0.5701910999996471;2229
140;0.5732761999988725;2230
141;0.5762758999990183;2232
142;0.5790735999999015;2234
143;0.5820710999996663;2235
144;0.5854756999997335;2237
145;0.5894513999992341;2239
146;0.5940054000002419;2241
147;0.5990005999992718;2244
148;0.6035023999993427;2247
149;0.6080019999990327;2250
150;0.6129832999995415;2253
151;0.6175502999994933;2257
152;0.62169989999893;2259
153;0.6259848999998212;2262
154;0.6309793000000354;2265
155;0.63598280000042;2268
156;0.6405440999988059;2271
157;0.6443570999999793;2274
158;0.6487203999986377;2276
159;0.652682799998729;2279
160;0.6566654999987804;2282
161;0.6606824999998935;2285
162;0.6646855999988475;2288
163;0.6686616999995749;2291
164;0.6721180000004097;2294
165;0.67663949999951;2296
166;0.680498699999589;2299
167;0.6846023999987665;2302
168;0.6882525999990321;2304
169;0.6926590999992186;2306
170;0.6963732999993226;2310
171;0.7006258000001253;2312
172;0.7046214999991207;2315
173;0.70866500000011;2318
174;0.7127038999988144;2321
175;0.7166500000002998;2324
176;0.7207287000001088;2326
177;0.7246206999989226;2329
178;0.7281165999993391;2332
179;0.7310911000004126;2335
180;0.7340174000000843;2337
181;0.737026099999639;2339
182;0.739980899999864;2342
183;0.742990099999588;2345
184;0.7466003999998065;2347
185;0.750627399998848;2351
186;0.7546273999996629;2354
187;0.7586221000001387;2357
188;0.7624978000003466;2361
189;0.7665340000003198;2364
190;0.7705937999999151;2367
191;0.7734966999996686;2370
192;0.7774833000003127;2372
193;0.780286299999716;2375
194;0.7832830999996077;2378
195;0.7862836000003881;2380
196;0.7893074000003253;2382
197;0.7922834000000876;2385
198;0.7952643999997235;2388
199;0.7980657999996765;2390
200;0.8010496999995667;2393
201;0.8042155000002822;2395
202;0.8072744000000966;2397
203;0.8102767999989737;2400
204;0.8132891999994172;2402
205;0.8160817999996652;2405
206;0.8190725999993447;2407
207;0.8220177999992302;2410
208;0.8250363999995898;2412
209;0.8286625999990065;2414
210;0.8326077000001533;2418
211;0.8366181999990658;2421
212;0.8390640999987227;2424
213;0.8419350999993185;2426
214;0.8438964999986638;2428
215;0.8458973999986483;2430
216;0.8478533999987121;2433
217;0.8498542999986967;2434
218;0.8518907999987277;2436
219;0.8548092999990331;2439
220;0.8569439999992028;2441
221;0.858899199998632;2443
222;0.8608898000002227;2445
223;0.8641804999988381;2447
224;0.8668856000003871;2450
225;0.8702531999988423;2453
226;0.8732554999987769;2456
227;0.8762451000002329;2459
228;0.8792845999996644;2462
229;0.8822741000003589;2464
230;0.8848725999996532;2467
231;0.8872721999996429;2469
232;0.8902457999993203;2471
233;0.8932817999993858;2474
234;0.8962799000000814;2477
235;0.8992797999999311;2479
236;0.9020117999989452;2482
237;0.9048753999995824;2484
238;0.9079552999992302;2487
239;0.9109248999993724;2489
240;0.9128304999994725;2492
241;0.9148418999993737;2493
242;0.9168737999989389;2495
243;0.9200366999994003;2497
244;0.921988500000225;2499
245;0.9254767000002175;2501
246;0.9297341000001325;2504
247;0.9349101999996492;2508
248;0.9395769999991899;2512
249;0.9435618999996223;2515
250;0.9476068000003579;2518
251;0.9516267999988486;2522
252;0.9552573999990273;2525
253;0.9585207999989507;2528
254;0.9626795999993192;2530
255;0.9666266000003816;2534
256;0.9702856999992946;2537
257;0.9733266000002914;2540
258;0.9765197999986412;2542
259;0.9793240999988484;2545
260;0.9835826999988058;2548
261;0.9876470999988669;2551
262;0.990322699999524;2555
263;0.9935182999997778;2558
264;0.9975704999997106;2561
265;1.0014659999997093;2564
266;1.00441519999913;2567
267;1.0075304999991204;2569
268;1.010396399999081;2571
269;1.014588599999115;2573
270;1.018592099999296;2576
271;1.0221738000000187;2579
272;1.025336900000184;2581
273;1.028366399999868;2583
274;1.0314421999992192;2585
275;1.0346215999998094;2586
276;1.0382341999993514;2589
277;1.042615399999704;2591
278;1.046593799999755;2594
279;1.0503662999999506;2596
280;1.0535500999994838;2598
281;1.0563289999990957;2600
282;1.0593346999994537;2602
283;1.0635322999987693;2603
284;1.0666206999994756;2605
285;1.0704960000002757;2607
286;1.074596999998903;2609
287;1.0785827999989124;2611
288;1.0826347999991413;2613
289;1.0866590999994514;2616
290;1.0906994999986637;2619
291;1.0946273999998084;2622
292;1.0986770999988948;2624
293;1.1025805999997829;2627
294;1.1066465999992943;2629
295;1.1106344999989233;2632
296;1.1146678999994037;2634
297;1.1185600999997405;2636
298;1.121046899999783;2638
299;1.1245582999999897;2640
300;1.1285752999992837;2642
301;1.1326489000002766;2645
302;1.1366277999986778;2647
303;1.140583999998853;2649
304;1.1445739999999205;2651
305;1.1486528999994334;2654
306;1.152676599998813;2656
307;1.1566141999992396;2658
308;1.160678199999893;2660
309;1.1646361999992223;2662
310;1.1681305000001885;2663
311;1.1721737999996549;2665
312;1.176597199999378;2666
313;1.180580000000191;2668
314;1.1845831999999064;2670
315;1.188208300000042;2671
316;1.1925843999997596;2672
317;1.196599499999138;2673
318;1.2005902999990212;2674
319;1.2044519999999466;2675
320;1.2086060000001453;2676
321;1.2125065999989602;2676
322;1.216580399999657;2677
323;1.2206115999997564;2678
324;1.2235229999987496;2679
325;1.227598499999658;2680
326;1.2305200999999215;2681
327;1.2345750000004045;2681
328;1.2381672999999864;2681
329;1.2413789000001998;2681
330;1.2443731000003027;2681
331;1.2475162999999156;2682
332;1.2515970000004017;2682
333;1.255064199998742;2683
334;1.2585476000003837;2683
335;1.2626211999995576;2683
336;1.2665715999992244;2683
337;1.2706077000002551;2683
338;1.274593999998615;2684
339;1.2781071999997948;2684
340;1.2812443999991956;2685
341;1.2842617999995127;2685
342;1.2872503999988112;2686
343;1.2902579999990849;2686
344;1.2932619999992312;2686
345;1.2962573999993765;2686
346;1.299279499999102;2686
347;1.302028699999937;2686
348;1.3050249999996595;2686
349;1.3086380999993708;2686
350;1.3123985999991419;2687
351;1.3163676999993186;2687
352;1.3207213999994565;2687
353;1.3229928000000655;2687
354;1.326492899999721;2687
355;1.3305342000003293;2687
356;1.3345462999986921;2687
357;1.3381296999996266;2687
358;1.3415207999987615;2687
359;1.3451697999989847;2686
360;1.3493194000002404;2686
361;1.3533241999994061;2685
362;1.3566393000000971;2685
363;1.360501999999542;2684
364;1.3645153999987087;2684
365;1.3685287999996945;2683
366;1.3710706000001665;2683
367;1.3755519999995158;2683
368;1.379521199998635;2682
369;1.3835261999993236;2681
370;1.3875737999987905;2680
371;1.3914872999994259;2679
372;1.395364799998788;2678
373;1.399504999999408;2676
374;1.4019871999989846;2675
375;1.4052931999995053;2675
376;1.4095428000000538;2674
377;1.4135248999991745;2673
378;1.4170395999990433;2672
379;1.4199004999991303;2671
380;1.4219147000003431;2671
381;1.4239130999994813;2670
382;1.426471999999194;2669
383;1.4305346999990434;2669
384;1.4340210999998817;2667
385;1.4374982999997883;2666
386;1.4404164999996283;2664
387;1.4434598999996524;2663
388;1.4473617000003287;2662
389;1.4499791999987792;2661
390;1.4534595999994053;2660
391;1.4563782999994146;2660
392;1.459302299999763;2658
393;1.4623094999988098;2657
394;1.4651542999999947;2656
395;1.468133399999715;2655
396;1.4709993999986182;2654
397;1.4745113999997557;2653
398;1.4785324999993463;2652
399;1.482536399998935;2650
400;1.4865432999995392;2648
401;1.48890240000037;2646
402;1.4922458000000915;2645
403;1.495129499999166;2644
404;1.4982720999996673;2642
405;1.5012618999990082;2641
406;1.5040983999988384;2639
407;1.5072753999993438;2638
408;1.5102931999990687;2637
409;1.5132747999996354;2635
410;1.5162647999986802;2633
411;1.5192793999995047;2632
412;1.5222611999997753;2630
413;1.525261999999202;2628
414;1.5282674999998562;2626
415;1.53126390000034;2624
416;1.5342619000002742;2622
417;1.5372569999999541;2621
418;1.5401631000004272;2619
419;1.5431582000001072;2618
420;1.5460592999988876;2616
421;1.549579200000153;2614
422;1.5534270999996806;2612
423;1.5559487999998964;2610
424;1.5598909000000276;2608
425;1.5619155999993382;2607
426;1.5640150999988691;2606
427;1.5659543000001577;2604
428;1.5679448999999295;2603
429;1.5700720999993791;2602
430;1.5729417000002286;2601
431;1.576434299999164;2599
432;1.580546699999104;2596
433;1.58478759999889;2593
434;1.5884127999997872;2590
435;1.5922680999992735;2588
436;1.5953764999994746;2585
437;1.5995939000004;2583
438;1.6034796999992977;2580
439;1.6063625999995566;2578
440;1.6093762000000424;2575
441;1.6131421999998565;2573
442;1.6163699999997334;2569
443;1.6200532000002568;2566
444;1.6234504000003653;2564
445;1.6274488999988534;2561
446;1.6314462999998796;2557
447;1.6354462999988755;2554
448;1.6393981999990501;2551
449;1.6423581999988528;2547
450;1.6451870000000781;2544
451;1.6482485999986238;2542
452;1.6511504999998579;2540
453;1.6540998999989824;2537
454;1.6571383999998943;2535
455;1.6601678999995784;2532
456;1.663169100000232;2530
457;1.6661709999989398;2528
458;1.6691759999994247;2525
459;1.6721729999990202;2522
460;1.675172699999166;2520
461;1.6780729999991308;2517
462;1.680868499999633;2515
463;1.684531999999308;2513
464;1.6881905999998708;2510
465;1.6913676999993186;2507
466;1.694204699999318;2504
467;1.6972124000003532;2502
468;1.7001964999999473;2499
469;1.7031914999988658;2497
470;1.7061532999996416;2495
471;1.7091442000000825;2493
472;1.7119387999991886;2491
473;1.715103700000327;2489
474;1.718174399999043;2487
475;1.7209653999998409;2484
476;1.7241759999997157;2482
477;1.7271666999986337;2479
478;1.7301551999989897;2477
479;1.733045499999207;2475
480;1.7360489000002417;2472
481;1.7390306999986933;2469
482;1.7424548999988474;2467
483;1.746503299998949;2464
484;1.7503933999996661;2460
485;1.754271300000255;2457
486;1.7573491999992257;2454
487;1.76141429999916;2452
488;1.7643699000000197;2448
489;1.7682127999996737;2446
490;1.7710540999996738;2443
491;1.7741475000002538;2441
492;1.7771487999998499;2438
493;1.78014660000008;2436
494;1.7831765999999334;2433
495;1.7862865999995847;2431
496;1.7892824999998993;2428
497;1.7922916999996232;2425
498;1.7952820999998949;2422
499;1.7982816000003368;2419
500;1.8010807999999088;2417
501;1.8040605999995023;2414
502;1.8071662999991531;2412
503;1.810256799999479;2409
504;1.8132697000000917;2407
505;1.8162679999986722;2405
506;1.8192748999990727;2403
507;1.822220299998662;2401
508;1.8250693999998475;2398
509;1.8280893999999535;2396
510;1.8310782999997173;2394
511;1.8340434999990975;2391
512;1.8374760999995488;2389
513;1.8415957999986858;2385
514;1.845681599999807;2381
515;1.849557300000015;2378
516;1.8548035999992862;2374
517;1.8601165000000037;2369
518;1.865104099999371;2366
519;1.8698210999991716;2361
520;1.8737549999987095;2358
521;1.8778602999991563;2355
522;1.8818558000002668;2351
523;1.8855151999996451;2348
524;1.8894841999990604;2345
525;1.8938870999991195;2341
526;1.8989234000000579;2338
527;1.90311119999933;2333
528;1.907175799999095;2330
529;1.9101978999988205;2328
530;1.9135351999993873;2325
531;1.917244700000083;2323
532;1.9206254999990051;2320
533;1.9233500999998796;2318
534;1.9275839000001724;2315
535;1.9315649000000121;2312
536;1.935712299999068;2310
537;1.9396192000003794;2307
538;1.943713900000148;2304
539;1.9478025999997044;2301
540;1.9515635999996448;2298
541;1.9552020999999513;2296
542;1.9596282000002248;2293
543;1.9635908999989624;2290
544;1.9660841999993863;2287
545;1.9696112999990874;2286
546;1.9721360999992612;2283
547;1.9755914999986999;2281
548;1.979283699998632;2278
549;1.9825506999986828;2276
550;1.986578299998655;2274
551;1.9893207999994047;2271
552;1.992392000000109;2269
553;1.9953898000003392;2267
554;1.998400299999048;2265
555;2.0024484999994456;2263
556;2.005054299999756;2260
557;2.008567099999709;2258
558;2.0125709000003553;2256
559;2.0165999999990163;2253
560;2.020669800000178;2251
561;2.024611699998786;2248
562;2.0286121999997704;2245
563;2.0326236999990215;2243
564;2.036693000000014;2240
565;2.040624999999636;2238
566;2.044555099999343;2236
567;2.0486144999995304;2234
568;2.052568600000086;2232
569;2.056574099999125;2229
570;2.060569100000066;2227
571;2.0645563999987644;2226
572;2.0686511999992945;2223
573;2.0720733999987715;2222
574;2.0755938999991486;2220
575;2.079588299999159;2219
576;2.083688799999436;2217
577;2.087118299999929;2214
578;2.090663400000267;2213
579;2.094693600000028;2211
580;2.0986570999994;2210
581;2.102547599999525;2208
582;2.106688199999553;2207
583;2.1105780999987473;2205
584;2.114621499998975;2203
585;2.118495900000198;2202
586;2.1225247000002128;2200
587;2.1267217000004166;2199
588;2.130656100000124;2197
589;2.1341511999999057;2196
590;2.1375138999992487;2194
591;2.141684799998984;2193
592;2.145643599998948;2192
593;2.1492949000003136;2191
594;2.1537369999987277;2190
595;2.157633299999361;2189
596;2.161611899999116;2188
597;2.1651987999994162;2187
598;2.1685469999993074;2186
599;2.172555099999954;2186
600;2.1765849999992497;2185
601;2.1805390999998053;2184
602;2.184624100000292;2184
603;2.188128499999948;2183
604;2.1915866999988793;2182
605;2.195690700000341;2182
606;2.199623499998779;2181
607;2.203612199999043;2181
608;2.2065562999996473;2181
609;2.2106148000002577;2181
610;2.214611600000353;2181
611;2.2183487999991485;2180
612;2.221166199999061;2180
613;2.224629799999093;2180
614;2.2286356999993586;2180
615;2.2326784999986558;2180
616;2.2366858999994292;2180
617;2.2406850999996095;2180
618;2.244156299999304;2180
619;2.247540000000299;2180
620;2.251623500000278;2181
621;2.2552396999999473;2181
622;2.258518799999365;2181
623;2.2626036000001477;2182
624;2.2666123999988486;2182
625;2.270737199998621;2182
626;2.2744206999996095;2182
627;2.277558300000237;2183
628;2.281616000000213;2183
629;2.2856059999994613;2183
630;2.289612299999135;2183
631;2.2921162999991793;2183
632;2.2951450000000477;2184
633;2.29829989999962;2184
634;2.3013532999993913;2185
635;2.304068699999334;2185
636;2.307315500000186;2186
637;2.3102897999997367;2187
638;2.313276999999289;2188
639;2.3162890000003244;2188
640;2.319293900000048;2189
641;2.322335799999564;2189
642;2.3252873999990697;2190
643;2.3282546999998885;2190
644;2.3312922999994043;2191
645;2.3343217999990884;2192
646;2.3371718999987934;2193
647;2.3402822999996715;2194
648;2.3433248000001186;2195
649;2.3462956000003032;2195
650;2.349315600000409;2196
651;2.3523274999988644;2197
652;2.3553100999997696;2198
653;2.3583010000002105;2199
654;2.361311399999977;2200
655;2.3642973999994865;2201
656;2.3672946999995474;2202
657;2.3702985999989323;2203
658;2.373281999998653;2204
659;2.3763256999991427;2205
660;2.37928169999941;2205
661;2.38230939999994;2206
662;2.3852833999990253;2207
663;2.3881249999994907;2208
664;2.391297099999065;2209
665;2.3942799999986164;2210
666;2.3972885999992286;2211
667;2.400114099998973;2213
668;2.4033017000001564;2214
669;2.4062905999999202;2215
670;2.409288699998797;2216
671;2.4123053000002983;2217
672;2.4152138999997987;2219
673;2.4181016000002273;2221
674;2.421074799998678;2222
675;2.4242974999997386;2224
676;2.4272939000002225;2226
677;2.430297499999142;2227
678;2.4332909999993717;2229
679;2.4362615999998525;2230
680;2.4393247999996674;2232
681;2.4422780999993847;2234
682;2.4452874999988126;2236
683;2.448286699998789;2237
684;2.451289099999485;2239
685;2.454065599999012;2241
686;2.4572639999987587;2242
687;2.4602873000003456;2245
688;2.46299050000016;2247
689;2.466094699999303;2249
690;2.4695482999995875;2251
691;2.4725640999986354;2253
692;2.476617799999076;2255
693;2.4801458999991155;2258
694;2.483288299999913;2260
695;2.4862904000001436;2262
696;2.4892918999994436;2263
697;2.492290599999251;2266
698;2.495083399999203;2268
699;2.498301999999967;2269
700;2.501293600000281;2272
701;2.5040814000003593;2274
702;2.5072963000002346;2276
703;2.5100978999998915;2278
704;2.5132599999997183;2280
705;2.517251600000236;2282
706;2.521162600000025;2285
707;2.524404899999354;2288
708;2.527430500000264;2290
709;2.5314462999995158;2292
710;2.5354510999986815;2294
711;2.5395738999995956;2297
712;2.5433537999997498;2300
713;2.5464047999994364;2302
714;2.5502564999987953;2304
715;2.5537225999996735;2306
716;2.557482700000037;2308
717;2.5614746999999625;2311
718;2.5655366999999387;2314
719;2.569439999999304;2317
720;2.5725462999998854;2320
