;time;amplitude
0;0.0037843999998585787;2442
1;0.006423700000596;2443
2;0.009411300001374912;2443
3;0.013543700000809622;2443
4;0.0168322999998054;2444
5;0.02094759999999951;2444
6;0.0249258000003465;2445
7;0.02848679999988235;2446
8;0.031757200000356534;2446
9;0.034928600000057486;2447
10;0.03895520000151009;2447
11;0.04241069999989122;2447
12;0.04584630000135803;2448
13;0.048934800001006806;2448
14;0.0528825000001234;2448
15;0.05603980000159936;2448
16;0.05959220000113419;2448
17;0.06291820000114967;2448
18;0.06695670000044629;2448
19;0.07095889999982319;2448
20;0.0749113000001671;2449
21;0.07749460000013642;2449
22;0.08049430000028224;2450
23;0.08383370000046853;2450
24;0.08806060000097204;2450
25;0.09168050000153016;2451
26;0.09457370000018273;2451
27;0.09789880000062112;2451
28;0.10193220000110159;2451
29;0.10489670000060869;2450
30;0.10783070000070438;2450
31;0.11041130000012345;2450
32;0.11383510000086972;2451
33;0.11790380000093137;2451
34;0.12186810000093828;2452
35;0.1244206999999733;2452
36;0.1274343000004592;2452
37;0.13039500000013504;2452
38;0.13339500000074622;2452
39;0.1363868000007642;2452
40;0.14085610000074666;2453
41;0.1446562000000995;2453
42;0.14749900000060734;2452
43;0.15039179999985208;2452
44;0.15341620000071998;2452
45;0.15643620000082592;2452
46;0.15930040000057488;2452
47;0.16264440000122704;2452
48;0.16575680000096327;2451
49;0.16874450000068464;2451
50;0.17153510000025562;2451
51;0.17454610000095272;2451
52;0.17734220000056666;2451
53;0.1805039000009856;2451
54;0.18343090000053053;2451
55;0.18617249999988417;2451
56;0.18837770000027376;2450
57;0.19128860000091663;2450
58;0.19321970000055444;2450
59;0.19645690000106697;2450
60;0.19993150000118476;2449
61;0.20400880000124744;2449
62;0.2065169000015885;2449
63;0.20941290000155277;2449
64;0.2126101000012568;2449
65;0.21551309999995283;2449
66;0.2183647000001656;2449
67;0.22138030000132858;2449
68;0.2245180000008986;2448
69;0.22738980000031006;2448
70;0.23032590000002529;2448
71;0.23229540000102133;2447
72;0.23423940000066068;2447
73;0.23747060000096099;2447
74;0.24035990000083984;2447
75;0.24220539999987523;2447
76;0.2444472000006499;2446
77;0.24632830000155082;2446
78;0.24929120000160765;2446
79;0.252294100000654;2446
80;0.25545899999997346;2445
81;0.25844580000011774;2445
82;0.2615780000014638;2445
83;0.264343300001201;2445
84;0.26741949999995995;2444
85;0.2697570000000269;2444
86;0.27236230000016803;2444
87;0.27453720000085013;2443
88;0.27745860000140965;2443
89;0.2802897000001394;2443
90;0.28336680000029446;2442
91;0.2863171000008151;2442
92;0.2895257000000129;2442
93;0.292322500001319;2442
94;0.29553889999988314;2441
95;0.29847500000141736;2441
96;0.3016136000005645;2441
97;0.30448940000133007;2441
98;0.3074999000000389;2440
99;0.3103601000002527;2440
100;0.31333040000026813;2440
101;0.31559139999990293;2439
102;0.31847620000007737;2439
103;0.3215135000009468;2439
104;0.3242920000011509;2439
105;0.3263842000014847;2439
106;0.32830530000137514;2439
107;0.3301425999998173;2439
108;0.3323374000010517;2438
109;0.33422220000102243;2439
110;0.33732680000139226;2438
111;0.3392970000004425;2438
112;0.34125350000067556;2438
113;0.34319910000158416;2437
114;0.3451784000008047;2437
115;0.3472144000006665;2437
116;0.34933100000125705;2437
117;0.3513299000005645;2436
118;0.3534224000013637;2436
119;0.35633530000086466;2436
120;0.35835899999983667;2436
121;0.3603318000004947;2435
122;0.3622056000003795;2435
123;0.36425730000155454;2435
124;0.36627020000014454;2434
125;0.36822590000156197;2434
126;0.3703568000000814;2434
127;0.3723167000007379;2434
128;0.37419690000024275;2434
129;0.3763131000014255;2433
130;0.37840740000137885;2433
131;0.3812800000014249;2433
132;0.3843605000001844;2432
133;0.38779880000038247;2432
134;0.39061490000131016;2431
135;0.39331330000095477;2431
136;0.3965308000006189;2431
137;0.3993750000008731;2430
138;0.40158289999999397;2430
139;0.40447630000016943;2429
140;0.4074902000011207;2429
141;0.41030270000010205;2428
142;0.41346250000060536;2428
143;0.4162673000009818;2427
144;0.41946890000144776;2426
145;0.4222685000004276;2426
146;0.4246543000008387;2426
147;0.42726200000106473;2426
148;0.4303629000005458;2425
149;0.4323229000001447;2425
150;0.43433140000161075;2424
151;0.4363379000005807;2424
152;0.43947640000078536;2423
153;0.44212810000135505;2423
154;0.44416310000087833;2422
155;0.4464443000015308;2422
156;0.4492939000010665;2421
157;0.45142830000077083;2421
158;0.4533582000003662;2421
159;0.4553148000013607;2420
160;0.457242700000279;2420
161;0.46026770000025863;2419
162;0.4633164000006218;2419
163;0.46558830000140006;2418
164;0.46845829999983835;2418
165;0.4714646000011271;2417
166;0.4742835000015475;2416
167;0.4772731000011845;2416
168;0.4803769000009197;2415
169;0.48362140000062936;2415
170;0.48636630000146397;2415
171;0.48932910000075935;2414
172;0.49128900000141584;2414
173;0.4932865999999194;2414
174;0.49538360000042303;2413
175;0.4983190000002651;2413
176;0.5002104000013787;2412
177;0.5022966000015003;2412
178;0.5041909999999916;2412
179;0.5064304000006814;2411
180;0.5082891000001837;2411
181;0.510292599999957;2411
182;0.5123784000006708;2410
183;0.5143029999999271;2410
184;0.5164150000000518;2410
185;0.5195745000000898;2409
186;0.5224025000006804;2409
187;0.5251055000007909;2409
188;0.5271564000013313;2408
189;0.5304716999999073;2408
190;0.533515900000566;2408
191;0.5364382000007026;2407
192;0.5392709000007017;2407
193;0.5412368000015704;2407
194;0.5432334000015544;2407
195;0.5452781000003597;2407
196;0.5472198000006756;2407
197;0.5492880000001605;2407
198;0.5514345999999932;2406
199;0.5544671000006929;2406
200;0.5573720000011235;2406
201;0.5602634000006219;2406
202;0.5634217000006174;2405
203;0.566275900000619;2405
204;0.5694313000003604;2405
205;0.5722958000005747;2405
206;0.5745766000000003;2405
207;0.577236900000571;2405
208;0.5802839000007225;2405
209;0.5834240000003774;2404
210;0.5861444000001939;2404
211;0.5894435000009253;2404
212;0.5923757000000478;2404
213;0.5942986000009114;2403
214;0.5974304999999731;2403
215;0.6002769000006083;2403
216;0.6033962000001338;2403
217;0.6065032000005885;2402
218;0.6092174000004889;2402
219;0.6114430000016;2402
220;0.6143950000005134;2402
221;0.6165073000011034;2402
222;0.6193684999998368;2402
223;0.6214053000003332;2402
224;0.6233634000000166;2402
225;0.626256800000192;2402
226;0.6284140000007028;2402
227;0.6314216000009765;2401
228;0.6334237000010035;2401
229;0.6364572000002227;2401
230;0.6394596999998612;2401
231;0.642224700000952;2401
232;0.6444587000005413;2401
233;0.6472308000011253;2401
234;0.6495825000001787;2401
235;0.6524122999999236;2401
236;0.6552651000001788;2401
237;0.6583924000005936;2401
238;0.6603114000008645;2401
239;0.6623378000003868;2401
240;0.6644113000002108;2401
241;0.6676649000000907;2401
242;0.6703655000001163;2401
243;0.6723672000007355;2401
244;0.6742932000015571;2401
245;0.6763095000005706;2402
246;0.6784731000007014;2402
247;0.6811981999999261;2401
248;0.6835750999998709;2401
249;0.6863956000015605;2401
250;0.6881978000001254;2401
251;0.6904310999998415;2401
252;0.693282400001408;2401
253;0.6964347000011912;2401
254;0.6994081000011647;2401
255;0.7021762000003946;2401
256;0.7044546000015544;2401
257;0.7074888000006467;2401
258;0.7102928000003885;2401
259;0.7133609000011347;2401
260;0.7163776000015787;2401
261;0.7184886000013648;2402
262;0.7203390000013314;2401
263;0.7222655000005034;2401
264;0.7242956000009144;2401
265;0.7272594000005483;2402
266;0.7291857000000164;2402
267;0.7312890000011976;2402
268;0.7332800000003772;2402
269;0.735449100000551;2402
270;0.7386163999999553;2402
271;0.7414555000013934;2402
272;0.7443250000014814;2403
273;0.7475075000002107;2403
274;0.7502730000014708;2403
275;0.753460100000666;2404
276;0.7565652000012051;2404
277;0.7593649999998888;2404
278;0.7625200000002224;2405
279;0.7653954000015801;2405
280;0.7684763000015664;2405
281;0.7713149000010162;2405
282;0.7733795000003738;2405
283;0.7751627000016015;2405
284;0.7772980000008829;2405
285;0.7802844000016194;2405
286;0.7824039000006451;2405
287;0.7855864000011934;2405
288;0.788414600001488;2406
289;0.7912513000010222;2406
290;0.7933732000001328;2406
291;0.7964377000007516;2406
292;0.7993426000011823;2407
293;0.801387600000453;2407
294;0.8034002000003966;2408
295;0.8052846000009595;2408
296;0.8071537000014359;2408
297;0.809336300000723;2408
298;0.8111982999998872;2408
299;0.813318900000013;2408
300;0.8153837000008934;2409
301;0.8175654000006034;2409
302;0.8192808000003424;2409
303;0.8228708000006009;2410
304;0.8264114000012341;2410
305;0.8297417000012501;2410
306;0.833615200001077;2410
307;0.8363829999998416;2411
308;0.839213799999925;2411
309;0.8411623000010877;2411
310;0.8432241000009526;2411
311;0.8453403000003163;2411
312;0.8473222000011447;2411
313;0.8493230000003678;2412
314;0.8513946000002761;2412
315;0.8533199000012246;2413
316;0.8553522000001976;2413
317;0.8584391000003961;2413
318;0.8614054000008764;2413
319;0.8633299000011903;2414
320;0.8652911000008316;2414
321;0.8673641000004864;2415
322;0.8701872000001458;2415
323;0.8723911000015505;2415
324;0.874375900000814;2415
325;0.8763413000015134;2415
326;0.8783023000014509;2416
327;0.880141999999978;2416
328;0.8821703000012349;2417
329;0.884340800001155;2417
330;0.8871734000003926;2417
331;0.8891988000013953;2417
332;0.8914541000012832;2417
333;0.8943636000003607;2418
334;0.8964169999999285;2418
335;0.8983600999999908;2418
336;0.9014280999999755;2418
337;0.9043718000011722;2419
338;0.9071719000003213;2419
339;0.9092290000007779;2420
340;0.911275200000091;2420
341;0.9131752000012057;2421
342;0.9153573000003234;2421
343;0.9173212000005151;2422
344;0.9193099000003713;2422
345;0.9213631000002351;2423
346;0.9232495000014751;2423
347;0.9251426999999239;2423
348;0.9271657000008418;2423
349;0.9292525000000751;2424
350;0.9312488000014127;2424
351;0.9333245000016177;2424
352;0.9353374000002077;2425
353;0.9372668000014528;2425
354;0.9392493000013928;2425
355;0.9411912000014127;2425
356;0.9432458000010229;2426
357;0.9452963000003365;2426
358;0.9472091000006913;2426
359;0.9492894000013621;2427
360;0.9512807000010071;2427
361;0.953317400000742;2427
362;0.9552505999999994;2427
363;0.9571625000007771;2428
364;0.9592225000014878;2428
365;0.9612157999999908;2428
366;0.963342000000921;2428
367;0.9652792000015324;2429
368;0.9681213000003481;2429
369;0.9702046000002156;2430
370;0.9722946000001684;2430
371;0.9743704000011348;2430
372;0.9761483000002045;2431
373;0.978156900000613;2431
374;0.9801502999998775;2431
375;0.9822137000010116;2432
376;0.9841856000002736;2432
377;0.9862155000009807;2432
378;0.9892119000014645;2432
379;0.9913537000011274;2433
380;0.9933642000014515;2433
381;0.9953430000005028;2434
382;0.9984522000013385;2434
383;1.0014790000004723;2434
384;1.0046240000010584;2434
385;1.0075255000010657;2434
386;1.0103458000012324;2434
387;1.0134406000015588;2435
388;1.0163348000005499;2435
389;1.0194750000009662;2435
390;1.0224785000009433;2436
391;1.0251978000014788;2436
392;1.0273345000005065;2437
393;1.030910400000721;2437
394;1.0337585000015679;2438
395;1.0363157000010688;2438
396;1.0383490000003803;2438
397;1.0402119999998831;2439
398;1.0437779000003502;2439
399;1.0467542000005778;2439
400;1.0499657000000298;2439
401;1.052391200000784;2440
402;1.0554621999999654;2440
403;1.0585257000002457;2440
404;1.0614388000012696;2440
405;1.0644811000001937;2441
406;1.0673744000014267;2441
407;1.0703036000013526;2442
408;1.072487400000682;2443
409;1.075265200001013;2443
410;1.07859770000141;2444
411;1.0814546000001428;2444
412;1.0841857000013988;2444
413;1.0864171000011993;2444
414;1.0883291000009194;2444
415;1.0912799000016093;2445
416;1.0932783000007475;2445
417;1.0952059000010195;2445
418;1.0971681999999419;2446
419;1.0991935000001831;2445
420;1.101466200001596;2446
421;1.10428150000007;2446
422;1.1073268000000098;2446
423;1.110519200001363;2446
424;1.1135027000000264;2447
425;1.116382900001554;2447
426;1.1195203000006586;2447
427;1.122609600000942;2448
428;1.1251335000015388;2448
429;1.1276343999998062;2449
430;1.1305191000010382;2448
431;1.1336254000016197;2449
432;1.1365310000001045;2449
433;1.1395078000005014;2449
434;1.1413514000014402;2449
435;1.1435169000014866;2449
436;1.1464719000014156;2450
437;1.1495787000003475;2450
438;1.1524645999998029;2450
439;1.1556443000008585;2451
440;1.158530200000314;2451
441;1.1613258000015776;2451
442;1.1645087000015337;2451
443;1.1675016000008327;2452
444;1.170499200001359;2452
445;1.1735087000015483;2452
446;1.1766569999999774;2452
447;1.1795044999998936;2452
448;1.1826389000016206;2452
449;1.1855107999999746;2452
450;1.1881669000013062;2452
451;1.1904771000008623;2452
452;1.1934352000007493;2452
453;1.196654800000033;2452
454;1.1995103000008385;2452
455;1.2026370000003226;2452
456;1.205507900000157;2452
457;1.2086274000012054;2452
458;1.2114427000014985;2452
459;1.2144056000015553;2452
460;1.2164075000000594;2452
461;1.2194775000007212;2452
462;1.2222746000006737;2452
463;1.2253183000011632;2452
464;1.2285203999999794;2452
465;1.2315889000001334;2451
466;1.234485400000267;2451
467;1.237627300000895;2452
468;1.2405288000009023;2451
469;1.243233200000759;2451
470;1.2452573999999004;2451
471;1.247260500000266;2451
472;1.249390000000858;2451
473;1.2511561999999685;2451
474;1.2532334000006813;2451
475;1.2552453000007517;2451
476;1.257241500001328;2451
477;1.2592113000009704;2451
478;1.2624552000015683;2451
479;1.2655235000001994;2450
480;1.2683891000015137;2450
481;1.2715777000012167;2450
482;1.2744368000003305;2450
483;1.277387500000259;2450
484;1.2803822000005312;2450
485;1.2834250000014435;2449
486;1.286422400000447;2449
487;1.2894672000002174;2449
488;1.2923504000009416;2449
489;1.2952388000012434;2449
490;1.2973167000000103;2449
491;1.300504800001363;2449
492;1.3034346000004007;2448
493;1.3066446000011638;2448
494;1.3092558000007557;2448
495;1.3124259000014717;2448
496;1.3154646000002685;2448
497;1.3173732000013842;2447
498;1.320506200001546;2447
499;1.3235250000016094;2447
500;1.326437800000349;2446
501;1.3283908000012161;2446
502;1.3313367999999173;2446
503;1.3344598000003316;2446
504;1.3378241000009439;2445
505;1.340851400000247;2445
506;1.343393000001015;2445
507;1.3468607000013435;2445
508;1.3508133000013913;2444
509;1.3549723000014637;2443
510;1.3577534000014566;2443
511;1.3603626000003715;2443
512;1.3623029999998835;2442
513;1.3644008999999642;2442
514;1.3664146000010078;2441
515;1.3693020999999135;2441
516;1.372286100000565;2441
517;1.3752024000004894;2440
518;1.3772994999999355;2440
519;1.3792893000008917;2439
520;1.382258900001034;2439
521;1.3854789000015444;2438
522;1.3885596000000078;2438
523;1.3915031000015006;2437
524;1.3944946999999956;2437
525;1.39732130000084;2437
526;1.3996113000011974;2437
527;1.4025127000004431;2436
528;1.4054688000014721;2436
529;1.4075439000007464;2436
530;1.4093585000009625;2435
531;1.4124627000001055;2435
532;1.4155819000006886;2434
533;1.418458100000862;2434
534;1.4216114999999263;2434
535;1.4242930000000342;2434
536;1.4264999000006355;2433
537;1.4295097000012902;2433
538;1.4324525000010908;2433
539;1.4355884000015067;2432
540;1.4384925000013027;2432
541;1.4412851000015507;2432
542;1.4433427000003576;2431
543;1.4453073000004224;2431
544;1.4473390000002837;2431
545;1.4493333999998868;2431
546;1.4514546999998856;2430
547;1.4542750000000524;2430
548;1.4565694000011717;2429
549;1.459323500001119;2429
550;1.4626111000015953;2429
551;1.465407800000321;2428
552;1.468428700000004;2427
553;1.4713900000006106;2427
554;1.473348800000167;2427
555;1.4764443000003666;2426
556;1.4794083000015235;2426
557;1.4824371000013343;2426
558;1.4854321000002528;2425
559;1.488269700001183;2425
560;1.4912533000006079;2424
561;1.4934145000006538;2423
562;1.4964091000001645;2423
563;1.4994327000003977;2423
564;1.5024472000004607;2422
565;1.5054414000005636;2422
566;1.5085938000011083;2422
567;1.5128761000014492;2421
568;1.5164584000012837;2420
569;1.5195520000015676;2420
570;1.5223252000014327;2419
571;1.525348799999847;2419
572;1.5285423000004812;2419
573;1.5316863000007288;2419
574;1.5345179000014468;2418
575;1.5373137000005954;2418
576;1.5395463000004384;2417
577;1.5426340000012715;2417
578;1.5454729000011866;2416
579;1.548829299999852;2416
580;1.5532109000014316;2415
581;1.558216800000082;2415
582;1.5634709000005387;2414
583;1.5684454000002006;2413
584;1.5734406000010495;2412
585;1.5778549000006024;2411
586;1.5822533999998996;2411
587;1.5859076000015193;2410
588;1.5900591999998142;2410
589;1.5935066000001825;2410
590;1.596981800001231;2410
591;1.600727500001085;2409
592;1.6038083000003098;2408
593;1.6076080000002548;2408
594;1.6108304000008502;2408
595;1.61343560000023;2407
596;1.616585900001155;2407
597;1.6196316000005027;2407
598;1.6225707000012335;2406
599;1.6253974000010203;2406
600;1.62856500000089;2406
601;1.6313325000010082;2406
602;1.6346104000003834;2406
603;1.6375410000000556;2406
604;1.640661600000385;2405
605;1.6435623000015767;2405
606;1.6466786000000866;2405
607;1.6495582000006834;2405
608;1.652676400000928;2404
609;1.6555488000012701;2404
610;1.6594648999998753;2404
611;1.6624213000013697;2404
612;1.66546340000059;2404
613;1.6684306000006472;2404
614;1.6715884000004735;2403
615;1.6745754000003217;2403
616;1.6777614000002359;2403
617;1.6804840000004333;2402
618;1.6838489000001573;2402
619;1.687487900000633;2402
620;1.6904449000012391;2402
621;1.693475699999908;2402
622;1.6967046999998274;2402
623;1.6998554000001604;2402
624;1.7027536000005057;2401
625;1.705714400000943;2401
626;1.7082710000013321;2401
627;1.7117748000000574;2401
628;1.7144180000013876;2402
629;1.7177081999998336;2401
630;1.7204270000001998;2401
631;1.7236729000014748;2401
632;1.7264379000007466;2401
633;1.7294235000008484;2401
634;1.7327677000012045;2401
635;1.7356780999998591;2401
636;1.738690800000768;2401
637;1.7424217000007047;2401
638;1.7457229000010557;2400
639;1.7494763000013336;2400
640;1.7524982000013551;2401
641;1.755447200001072;2401
642;1.7582595000003494;2401
643;1.7607095000003028;2401
644;1.7638442000006762;2401
645;1.7683369000005769;2401
646;1.771883400000661;2401
647;1.775517200001559;2401
648;1.7786109000007855;2401
649;1.7814355000009527;2401
650;1.7843927000012627;2401
651;1.7874327999998059;2401
652;1.7903853000007075;2401
653;1.7922800000014831;2401
654;1.7952875000009954;2402
655;1.797322800000984;2402
656;1.7994846000001417;2402
657;1.8022307999999612;2402
658;1.805474000000686;2402
659;1.8085257000002457;2402
660;1.8115630000011151;2402
661;1.814461100000699;2403
662;1.8174843000015244;2403
663;1.8205162000012933;2403
664;1.8233111000008648;2404
665;1.825300900000002;2404
666;1.827288000000408;2404
667;1.8292734000006021;2404
668;1.831260500001008;2404
669;1.8332567000015842;2405
670;1.8352921000005153;2405
671;1.8374661000016204;2405
672;1.8402904000013223;2405
673;1.842467000000397;2406
674;1.8455790000007255;2406
675;1.8484844000013254;2406
676;1.8517879999999423;2406
677;1.8545940000003611;2407
678;1.8573962000009487;2407
679;1.8593685000014375;2407
680;1.8613126000000193;2407
681;1.8642471000002843;2408
682;1.86627050000061;2408
683;1.8682979000004707;2408
684;1.8702792000003683;2408
685;1.873336399999971;2409
686;1.8752060000006168;2409
687;1.8771875000002183;2409
688;1.8793603000012808;2409
689;1.8823289000010845;2410
690;1.8842863999998372;2410
691;1.8863108000005013;2410
692;1.8882384000007733;2410
693;1.8912734000005003;2410
694;1.8932550000008632;2410
695;1.895248900000297;2410
696;1.8973494000001665;2410
697;1.8993814000004932;2410
698;1.9013708000002225;2410
699;1.9033890000009706;2411
700;1.9052446000005148;2411
701;1.9073234000006778;2411
702;1.9092044000008173;2411
703;1.9111786000012216;2411
704;1.9133023000013054;2411
705;1.9153010999998514;2411
706;1.9174097000013717;2412
707;1.9193144000000757;2412
708;1.9213372000012896;2412
709;1.9233260000000882;2412
710;1.9252338000005693;2413
711;1.9272641000006843;2413
712;1.9291827000015473;2413
713;1.9311930000003485;2413
714;1.9332518000010168;2413
715;1.9352576000001136;2413
716;1.9372813000009046;2414
