;time;amplitude
0;0.003018999999767402;2383
1;0.006469299998570932;2383
2;0.010137199999007862;2382
3;0.013076899998850422;2382
4;0.01611159999993106;2382
5;0.019292299999506213;2381
6;0.022074099999372265;2381
7;0.025057699998797034;2381
8;0.028312099999311613;2381
9;0.031030699999973876;2381
10;0.03448669999852427;2380
11;0.03720219999922847;2380
12;0.04016869999941264;2380
13;0.042986099999325234;2380
14;0.04623459999857005;2380
15;0.04933059999893885;2381
16;0.052520600000207196;2380
17;0.056539799999882234;2380
18;0.059285999999701744;2380
19;0.06212520000008226;2380
20;0.06539989999873796;2380
21;0.06950890000007348;2380
22;0.07225739999921643;2380
23;0.07530529999894497;2380
24;0.07794839999951364;2380
25;0.08119509999960428;2380
26;0.08403769999858923;2380
27;0.08713989999887417;2380
28;0.08991129999958503;2380
29;0.09303469999940717;2381
30;0.09586719999970228;2381
31;0.0979732999985572;2381
32;0.10088959999848157;2380
33;0.10300929999903019;2381
34;0.1060641999993095;2381
35;0.10891850000007253;2381
36;0.1119896999989578;2381
37;0.11505329999999958;2381
38;0.11778509999930975;2381
39;0.12095810000027996;2381
40;0.12393609999890032;2381
41;0.12595820000024105;2382
42;0.1288723999987269;2382
43;0.1319629999998142;2382
44;0.13522589999956836;2382
45;0.1379637999998522;2382
46;0.14009540000006382;2382
47;0.14307229999940319;2382
48;0.14590209999914805;2382
49;0.1491067999995721;2382
50;0.1519518999994034;2383
51;0.15503369999896677;2383
52;0.1582853999989311;2383
53;0.16086219999851892;2384
54;0.1643750999992335;2384
55;0.16729099999975006;2384
56;0.1702949999998964;2385
57;0.17276889999993728;2385
58;0.17638689999876078;2386
59;0.17897179999999935;2386
60;0.18109559999902558;2386
61;0.18417799999951967;2387
62;0.18704479999905743;2387
63;0.18982779999896593;2387
64;0.1917550999987725;2387
65;0.19372519999888027;2387
66;0.1957892999998876;2388
67;0.1979816999992181;2388
68;0.20089589999952295;2388
69;0.20395349999853352;2389
70;0.2068937999993068;2389
71;0.21041199999854143;2390
72;0.21282679999967513;2390
73;0.21535899999980757;2390
74;0.21831709999969462;2391
75;0.22097690000009607;2391
76;0.22399069999846688;2391
77;0.22677899999871443;2391
78;0.22872429999915767;2392
79;0.2309070999999676;2392
80;0.23292029999902297;2392
81;0.2349116999994294;2392
82;0.23689729999932752;2393
83;0.23890229999960866;2393
84;0.2408605999989959;2393
85;0.2439524999990681;2393
86;0.24581260000013572;2394
87;0.2478878000001714;2394
88;0.2510144999996555;2394
89;0.2537973999988026;2395
90;0.25601389999974344;2395
91;0.25893120000000636;2395
92;0.2619481999990967;2396
93;0.26500080000005255;2397
94;0.2678403999998409;2397
95;0.27100329999848327;2398
96;0.27416099999936705;2398
97;0.27698599999894213;2398
98;0.2787985999984812;2399
99;0.2818202999987989;2399
100;0.2849103999997169;2400
101;0.28823169999850506;2401
102;0.29273060000014084;2402
103;0.2974257999994734;2403
104;0.3017424999998184;2404
105;0.30538439999872935;2405
106;0.30905019999954675;2406
107;0.31203129999994417;2407
108;0.3151183999998466;2407
109;0.3182245999996667;2407
110;0.3213802999998734;2407
111;0.323904599999878;2408
112;0.327334300000075;2409
113;0.32996359999924607;2409
114;0.33313619999898947;2410
115;0.3359259999997448;2410
116;0.33801949999906356;2411
117;0.3409319000002142;2411
118;0.34423640000022715;2412
119;0.34703059999992547;2413
120;0.3498559999989084;2413
121;0.35288819999914267;2414
122;0.3558212999996613;2414
123;0.35896339999999327;2415
124;0.3619619999990391;2416
125;0.3648966000000655;2417
126;0.36802459999853454;2417
127;0.37084739999954763;2418
128;0.37297299999954703;2418
129;0.3761704999997164;2418
130;0.37888550000025134;2419
131;0.38097019999986514;2419
132;0.38376809999863326;2420
133;0.38583979999930307;2420
134;0.3889616999986174;2421
135;0.3908839999985503;2422
136;0.3939652999997634;2422
137;0.396860499999093;2423
138;0.39910579999923357;2423
139;0.40199070000016945;2424
140;0.4047493999987637;2425
141;0.4069646999996621;2425
142;0.4090050999984669;2426
143;0.4119699999992008;2426
144;0.4153511999993498;2427
145;0.4191038999997545;2428
146;0.4220041999997193;2429
147;0.42497069999990345;2430
148;0.42780909999964933;2431
149;0.429874599998584;2431
150;0.431995699998879;2431
151;0.4348300999990897;2431
152;0.4370030999998562;2432
153;0.4405010999998922;2432
154;0.4453230999988591;2434
155;0.44946039999922505;2435
156;0.4534769000001688;2436
157;0.4579926999995223;2437
158;0.46105720000014117;2438
159;0.46431569999913336;2439
160;0.467056199999206;2440
161;0.47109219999947527;2441
162;0.4740520999985165;2442
163;0.47729400000025635;2442
164;0.479902499999298;2443
165;0.4832029999997758;2443
166;0.4859145999998873;2444
167;0.4888647999996465;2445
168;0.49217249999855994;2446
169;0.4948951999995188;2445
170;0.4970321000000695;2446
171;0.49989129999994475;2447
172;0.5030042999987927;2448
173;0.5060163999987708;2448
174;0.508888599999409;2449
175;0.5119795999999042;2450
176;0.5150446999996348;2450
177;0.5180036000001564;2451
178;0.5210368999996717;2452
179;0.5240520999996079;2452
180;0.5268372999998974;2453
181;0.5288867999988724;2454
182;0.5319413999986864;2454
183;0.5349327999992965;2454
184;0.5382616999995662;2455
185;0.5422699999999168;2456
186;0.544904200000019;2456
187;0.5469013999991148;2457
188;0.5492213999987143;2457
189;0.5520292000001064;2458
190;0.5550956999995833;2458
191;0.5580807999995159;2459
192;0.5608066999993753;2460
193;0.5639307000001281;2460
194;0.5671880999998393;2461
195;0.5700081999984832;2461
196;0.5730124000001524;2462
197;0.5759391999999934;2462
198;0.5788948999997956;2462
199;0.5819119999996474;2463
200;0.5852758999990328;2463
201;0.5878656999993837;2464
202;0.591053500000271;2465
203;0.5939989999988029;2465
204;0.5972993999985192;2465
205;0.6000813999999082;2466
206;0.6028656999988016;2466
207;0.6061043999998219;2466
208;0.6089740999996138;2466
209;0.6118592999991961;2466
210;0.6149322000001121;2466
211;0.6180249999997613;2467
212;0.6210022999985085;2468
213;0.6227940999997372;2468
214;0.6260899999997491;2468
215;0.628938099998777;2468
216;0.6318503999991663;2469
217;0.6350382000000536;2469
218;0.6380246999997325;2469
219;0.6410090999997919;2470
220;0.6437933999986853;2470
221;0.645972599999368;2470
222;0.6490349999985483;2470
223;0.6511648999985482;2470
224;0.653996899998674;2470
225;0.657159700000193;2471
226;0.6600380999989284;2471
227;0.6628592999986722;2471
228;0.6651015999996162;2471
229;0.6680638999987423;2471
230;0.6707759000000806;2471
231;0.6738429999986693;2472
232;0.6760445999989315;2472
233;0.6790648999995028;2473
234;0.6820539999989705;2473
235;0.6851443999985349;2473
236;0.6880291999987094;2474
237;0.6909983999994438;2474
238;0.6928685000002588;2474
239;0.6947944999992615;2474
240;0.69681589999891;2474
241;0.6990140999987489;2474
242;0.7019807999986369;2474
243;0.7049859999988257;2474
244;0.7085122999997111;2475
245;0.710946100000001;2475
246;0.7143170999988797;2475
247;0.7174345999992511;2476
248;0.7200916999991023;2476
249;0.7230073999999149;2476
250;0.7259629999989556;2476
251;0.7279388999995717;2476
252;0.7313744000002771;2476
253;0.7355062999995425;2475
254;0.7395281999997678;2475
255;0.7434352000000217;2475
256;0.7464407999996183;2475
257;0.7493515999994997;2475
258;0.7520913999996992;2475
259;0.7550291999996261;2475
260;0.7581560999988142;2475
261;0.7609038999999029;2475
262;0.7640778999993927;2475
263;0.7670184999988123;2475
264;0.7700267999989592;2475
265;0.7728680999989592;2474
266;0.775966299999709;2474
267;0.7778293999999732;2474
268;0.779887199998484;2474
269;0.7819978999996238;2473
270;0.7849768999985827;2473
271;0.7868355999999039;2473
272;0.790068499998597;2472
273;0.7929566000002524;2472
274;0.7961235000002489;2472
275;0.7990270999998756;2472
276;0.8020075999993423;2471
277;0.8050213999995322;2471
278;0.8080145999992965;2471
279;0.8111165999998775;2471
280;0.8155645999995613;2471
281;0.819632199998523;2471
282;0.8230996000002051;2470
283;0.8261082999997598;2470
284;0.829123299999992;2469
285;0.8321147999995446;2469
286;0.8351078999985475;2469
287;0.8380313999987266;2468
288;0.8410537999989174;2468
289;0.8440871999991941;2468
290;0.8472196999991866;2468
291;0.8510657999995601;2467
292;0.8540407000000414;2467
293;0.8571402999987185;2467
294;0.860146099999838;2466
295;0.8631919999988895;2466
296;0.8659847999988415;2466
297;0.8689381999993202;2465
298;0.8719284999988304;2465
299;0.8748736999987159;2464
300;0.8770690000001196;2464
301;0.8800740999995469;2463
302;0.8831417000001238;2463
303;0.8860528999994131;2463
304;0.8889308999987406;2463
305;0.8908073000002332;2462
306;0.8939109000002645;2462
307;0.8958228999999847;2461
308;0.89788149999913;2461
309;0.8998983000001317;2461
310;0.9027788999992481;2460
311;0.904832999998689;2460
312;0.9068303999993077;2459
313;0.9087359999994078;2459
314;0.9108048999987659;2459
315;0.912764499998957;2459
316;0.9147761999993236;2458
317;0.9168780999989394;2458
318;0.9199656999990111;2458
319;0.922903699998642;2458
320;0.9247193999999581;2458
321;0.9267554999987624;2457
322;0.9287500999998883;2457
323;0.930780999999115;2456
324;0.9327744000001985;2456
325;0.9348088999995525;2456
326;0.9368875999989541;2456
327;0.9387369999985822;2455
328;0.9408912999988388;2455
329;0.9438408999994863;2455
330;0.9458465999996406;2454
331;0.9479869999995572;2454
332;0.9501802999984648;2453
333;0.9529708999998547;2453
334;0.9558956000000762;2452
335;0.9579796999987593;2451
336;0.9599060999989888;2451
337;0.9618718999990961;2450
338;0.9637645000002522;2450
339;0.9657737999987148;2450
340;0.9679582999997365;2449
341;0.9708025999989331;2449
342;0.973026799998479;2448
343;0.9762406999998348;2447
344;0.9789408999986335;2447
345;0.9820641999995132;2446
346;0.9855044999985694;2445
347;0.9894613999986177;2444
348;0.9921853999985615;2443
349;0.9949307999995654;2443
350;0.9982108999993216;2442
351;1.0010336999985157;2441
352;1.003822599999694;2440
353;1.0059673999985534;2440
354;1.0089928999987023;2440
355;1.0119293999996444;2439
356;1.0150730999994266;2438
357;1.018407899999147;2438
358;1.0213042999985191;2437
359;1.0241788999992423;2437
360;1.0271341999996366;2436
361;1.0299033999999665;2435
362;1.0321675999985018;2435
363;1.0349860999995144;2435
364;1.0368885999996564;2434
365;1.0387785999992047;2434
366;1.0407634999992297;2434
367;1.042971699998816;2433
368;1.045140199999878;2433
369;1.04790150000008;2433
370;1.0501110999994125;2432
371;1.0534213999999338;2432
372;1.0563119999987975;2431
373;1.059131999998499;2430
374;1.0619394999994256;2430
375;1.065076599999884;2430
376;1.0680433999987144;2429
377;1.0709162999992259;2428
378;1.0731331999995746;2427
379;1.0760847999990801;2427
380;1.078889499998695;2427
381;1.0809725999988586;2426
382;1.0840960999994422;2425
383;1.0870847999995021;2425
384;1.0901028999996925;2424
385;1.0930725999987772;2423
386;1.0947323999989749;2423
387;1.0970676999986608;2422
388;1.100058199999694;2421
389;1.1029968000002555;2421
390;1.10601029999998;2420
391;1.1091031999985717;2419
392;1.1120534000001498;2419
393;1.1150127999990218;2418
394;1.1180497999994259;2417
395;1.1210430999999517;2417
396;1.1239619999996648;2416
397;1.1270826999989367;2416
398;1.1300590999999258;2415
399;1.1332802999986598;2414
400;1.1365162999991298;2414
401;1.140474499999982;2413
402;1.1441989999984798;2413
403;1.1471056999998837;2412
404;1.1499550999997155;2411
405;1.1530557999994926;2410
406;1.1562615999991976;2410
407;1.159087299998646;2409
408;1.1621985000001587;2408
409;1.1650712999999087;2407
410;1.168041799999628;2407
411;1.1710484999985056;2407
412;1.1741760999993858;2406
413;1.1775811999996222;2405
414;1.1815453999988677;2405
415;1.1853584999989835;2403
416;1.1879140000000916;2403
417;1.1907058999986475;2403
418;1.1928880999985267;2402
419;1.1948600999985501;2401
420;1.1968811999995523;2401
421;1.1989888999996765;2400
422;1.2021082999999635;2400
423;1.204999300000054;2399
424;1.2085998999991716;2399
425;1.2120175000000017;2398
426;1.2148712999987765;2398
427;1.2183448999985558;2397
428;1.2213080000001355;2396
429;1.2242071999990003;2396
430;1.2269103999988147;2395
431;1.2288088999994216;2395
432;1.232116799999858;2394
433;1.2350689999984752;2394
434;1.2382349999988946;2394
435;1.2410890999999538;2393
436;1.2450024999998277;2392
437;1.248087799998757;2391
438;1.250825099999929;2391
439;1.2528168999997433;2390
440;1.2548182999998971;2390
441;1.256852099999378;2390
442;1.2588533999987703;2389
443;1.2618646999999328;2389
444;1.2648644000000786;2389
445;1.2678550000000541;2389
446;1.2698844999995345;2389
447;1.2718758999999409;2388
448;1.273955799999385;2388
449;1.275839799998721;2387
450;1.2778512999993836;2387
451;1.2799255999998422;2387
452;1.2818400999985897;2386
453;1.284939499999382;2386
454;1.2869037999989814;2385
455;1.2888929000000644;2385
456;1.2909503999999288;2385
457;1.2929440999996586;2385
458;1.2949201999999786;2384
459;1.2968114999985119;2384
460;1.2989054999998189;2384
461;1.300967999999557;2384
462;1.303810199999134;2384
463;1.3068966999999247;2383
464;1.3088079999997717;2383
465;1.3108319000002666;2383
466;1.3128059999999095;2384
467;1.3148583999991388;2383
468;1.3179724999990867;2383
469;1.3199430999993638;2383
470;1.3218890999996802;2383
471;1.3238702999988163;2383
472;1.3258014000002731;2383
473;1.3278405999990355;2383
474;1.3299361999997927;2382
475;1.331929099998888;2382
476;1.333856299999752;2382
477;1.3358110999997734;2382
478;1.337802299998657;2382
479;1.3399140000001353;2382
480;1.3429388999993535;2381
481;1.3448043999997026;2381
482;1.3469195999987278;2381
483;1.3499685999995563;2381
484;1.3529638999989402;2381
485;1.354890599999635;2381
486;1.3579824999997072;2381
487;1.3599395000001095;2381
488;1.3619545999990805;2381
489;1.3638902999991842;2381
490;1.3659647999993467;2381
491;1.3679264999991574;2381
492;1.3698428999996395;2381
493;1.3728916000000027;2381
494;1.3748008999991725;2381
495;1.3769042999992962;2381
496;1.3787905999997747;2381
497;1.3809265999989293;2381
498;1.3828862999998819;2380
499;1.384882899999866;2381
500;1.3867310999994515;2380
501;1.3889063999995415;2381
502;1.3908453999993071;2381
503;1.3926514999984647;2381
504;1.3949183999993693;2381
505;1.3968817999993917;2381
506;1.3987800999984756;2381
507;1.400874199998725;2381
508;1.4028287000001;2381
509;1.4048934999991616;2381
510;1.4068256999998994;2381
511;1.4088025000000926;2381
512;1.4108019999985117;2381
513;1.4139247999992222;2381
514;1.4171833999989758;2381
515;1.4200476999994862;2381
516;1.423216199998933;2381
517;1.4258660999985295;2381
518;1.4278484999995271;2381
519;1.4301833999998053;2381
520;1.4335525999995298;2382
521;1.4373570999996446;2382
522;1.4405603999985033;2382
523;1.4433107999993808;2383
524;1.4463679999989836;2383
525;1.4494455999993079;2383
526;1.4521165999994992;2383
527;1.4549451999992016;2383
528;1.4580122999996092;2383
529;1.4607724999987113;2383
530;1.463099799999327;2384
531;1.465876299998854;2384
532;1.4693962000001193;2383
533;1.4723271999991994;2384
534;1.4758979999987787;2384
535;1.4790772999986075;2385
536;1.481852599999911;2385
537;1.4849481000001106;2385
538;1.4869417999998404;2386
539;1.4887952999997651;2386
540;1.490776200000255;2386
541;1.4928199999994831;2386
542;1.4947998999996344;2387
543;1.496788499998729;2386
544;1.4988071999996464;2387
545;1.5009610999986762;2387
546;1.5027890000001207;2387
547;1.5047887999990053;2388
548;1.506977299999562;2388
549;1.5088305999997829;2388
550;1.5120443999985582;2388
551;1.5151210999993054;2389
552;1.5179615999986709;2389
553;1.5208911999998236;2390
554;1.5229050999987521;2390
555;1.5260271999995894;2391
556;1.5289868999989267;2391
557;1.532043799999883;2392
558;1.535017099999095;2392
559;1.5379791999985173;2392
560;1.541092800000115;2393
561;1.5437894999995478;2393
562;1.545919700000013;2394
563;1.5478647999989334;2394
564;1.5508958999998868;2395
565;1.5539989999997488;2395
566;1.5571724000001268;2395
567;1.5599532999985968;2396
568;1.5618830999992497;2397
569;1.564008899998953;2397
570;1.5670230999985506;2398
571;1.5701615999987553;2398
572;1.572975299999598;2399
573;1.5748631999995268;2399
574;1.577853699998741;2399
575;1.5807329999988724;2400
576;1.582760600000256;2401
577;1.586109599998963;2401
578;1.589111100000082;2402
579;1.5922375999998621;2402
580;1.59491159999925;2402
581;1.5979622999984713;2403
582;1.6010484999987966;2403
583;1.603874899999937;2404
584;1.6070452999992995;2404
585;1.610208899999634;2405
586;1.612914199999068;2406
587;1.6160638999990624;2406
588;1.6191619999990507;2407
589;1.621967399998539;2407
590;1.6248250999997254;2408
591;1.62674270000025;2408
592;1.6298478999997315;2409
593;1.6320106999992277;2410
594;1.6351797999996052;2410
595;1.6379407999993418;2410
596;1.6401638999996067;2411
597;1.6429329000002326;2412
598;1.644991699999082;2412
599;1.648052699998516;2413
600;1.6511829999999463;2414
601;1.6540494000000763;2414
602;1.656976999998733;2415
603;1.6590779999987717;2415
604;1.6621352000001934;2415
605;1.664855399998487;2416
606;1.668254700000034;2417
607;1.6723922999990464;2417
608;1.6765139999988605;2418
609;1.6809037999992142;2419
610;1.6845266000000265;2419
611;1.688778399999137;2421
612;1.6925818999989133;2422
613;1.6967562999998336;2422
614;1.7006846999993286;2423
615;1.7046425999997155;2423
616;1.7082873999988806;2424
617;1.7123387999999977;2425
618;1.7152700999995432;2426
619;1.7192357999992964;2427
620;1.7222258000001602;2427
621;1.7252059999991616;2428
622;1.7281258000002708;2429
623;1.7311965999997483;2429
624;1.7340749999984837;2430
625;1.7371953999991092;2431
626;1.740057799999704;2431
627;1.7431225999989692;2432
628;1.746242600000187;2433
629;1.7491833999993105;2433
630;1.7521982999987813;2435
631;1.754951799999617;2436
632;1.757957300000271;2436
633;1.7609378999986802;2437
634;1.7639601999999286;2437
635;1.7673715999990236;2438
636;1.770188099999359;2439
637;1.773211399999127;2440
638;1.7761919999993552;2441
639;1.779096700000082;2441
640;1.7821102999987488;2442
641;1.7850968000002467;2442
642;1.7878678999986732;2443
643;1.7901079999992362;2444
644;1.7930059999998775;2444
645;1.7959750999998505;2444
646;1.7991141000002244;2445
647;1.8018560000000434;2446
648;1.804999099998895;2446
649;1.8070043999996415;2447
650;1.8098976999990555;2447
651;1.8120189999990544;2448
652;1.813933100000213;2448
653;1.8159443999993528;2449
654;1.8178855999994994;2450
655;1.8199006999984704;2450
656;1.8228881999984878;2451
657;1.8260371999986091;2450
658;1.8287982000001648;2451
659;1.8311314000002312;2452
660;1.8339925999989646;2452
661;1.836877199999435;2453
662;1.8388588999987405;2453
663;1.840980999999374;2454
664;1.8437916999992012;2454
665;1.8460266000001866;2454
666;1.848845499998788;2455
667;1.850812999999107;2456
668;1.8528140999987954;2456
669;1.8548586999986583;2457
670;1.857922499999404;2457
671;1.860846199999287;2458
672;1.8641305000001012;2458
673;1.8671309000001202;2459
674;1.869857799998499;2459
675;1.8730859999996028;2460
676;1.8760652000000846;2461
677;1.8779082000000926;2461
678;1.8810751000000892;2462
679;1.88391479999882;2462
680;1.8870078999989346;2463
681;1.8900723999995535;2463
682;1.893047800000204;2464
683;1.895933799998602;2464
684;1.8977927999985695;2465
685;1.8997849999996106;2465
686;1.901816300000064;2465
687;1.9036688999985927;2465
688;1.90593970000009;2466
689;1.9077774999987014;2466
690;1.9108735999998316;2466
691;1.9130343999986508;2467
692;1.916056000000026;2467
693;1.919103799998993;2468
694;1.9220413000002736;2468
695;1.9250627999990684;2468
696;1.9279119000002538;2469
697;1.9299964999991062;2469
698;1.9317720999988524;2469
699;1.933952399998816;2469
700;1.9370339999986754;2470
701;1.940060099999755;2470
702;1.943030299999009;2471
703;1.945878399999856;2471
704;1.9490592000001925;2471
705;1.951850999999806;2471
706;1.9550842999997258;2472
707;1.9581970999988698;2472
708;1.9608566999995674;2472
709;1.9639948999993067;2473
710;1.9660528999993403;2473
711;1.9690727999986848;2472
712;1.9718854000002466;2473
713;1.9750523999991856;2473
714;1.9779519999992772;2474
715;1.9809387999994215;2474
716;1.982997899998736;2474
