;time;amplitude
0;0.0051782999998977175;2485
1;0.010076000000481145;2488
2;0.01399900000069465;2491
3;0.01897550000103365;2493
4;0.024188200000935467;2496
5;0.029049900000245543;2500
6;0.03373409999949217;2503
7;0.0375253000001976;2505
8;0.04191510000055132;2507
9;0.045755999999528285;2510
10;0.04939089999970747;2513
11;0.053197900000668596;2515
12;0.0566662000001088;2517
13;0.060754500000257394;2520
14;0.06466659999932745;2523
15;0.06870010000056936;2525
16;0.07272259999990638;2528
17;0.07648680000056629;2531
18;0.079677100000481;2533
19;0.08356289999937871;2536
20;0.08737490000021353;2539
21;0.09063070000047446;2540
22;0.09438399999999092;2543
23;0.09838379999928293;2545
24;0.10278769999968063;2548
25;0.10675480000099924;2550
26;0.11060399999951187;2553
27;0.1144758999998885;2555
28;0.11756819999936852;2557
29;0.1212749000005715;2559
30;0.12454070000057982;2561
31;0.12845550000020012;2563
32;0.13154059999942547;2565
33;0.134282400000302;2567
34;0.13765050000074552;2568
35;0.14155039999968722;2570
36;0.14559680000093067;2572
37;0.1481327000001329;2574
38;0.15143110000099114;2576
39;0.1552869000006467;2578
40;0.15853559999959543;2579
41;0.16258550000020477;2581
42;0.1650578000007954;2583
43;0.16849399999955494;2584
44;0.17154020000089076;2586
45;0.17541589999927965;2588
46;0.17860579999978654;2590
47;0.18220730000030017;2591
48;0.18660280000040075;2593
49;0.1906976999998733;2594
50;0.19442479999997886;2596
51;0.1970584000009694;2597
52;0.20032349999928556;2598
53;0.20362790000035602;2600
54;0.20642690000022412;2601
55;0.21028930000102264;2602
56;0.21331090000057884;2603
57;0.2163237000004301;2604
58;0.2195800000008603;2605
59;0.2234578000006877;2606
60;0.22759059999953024;2608
61;0.2315558999998757;2609
62;0.23557550000077754;2610
63;0.23860220000096888;2611
64;0.24220160000004398;2613
65;0.2451548000008188;2613
66;0.2482469000005949;2614
67;0.2526735000010376;2616
68;0.2565938999996433;2617
69;0.25957799999923736;2619
70;0.26362169999993057;2620
71;0.2665919000010035;2622
72;0.2708103000004485;2623
73;0.27450429999953485;2624
74;0.27826330000061716;2626
75;0.28214590000061435;2627
76;0.2865462000008847;2629
77;0.2904939000000013;2630
78;0.2935952999996516;2631
79;0.2975991999992402;2632
80;0.3016200000001845;2632
81;0.30520609999985027;2633
82;0.30831080000098154;2634
83;0.3115453999998863;2635
84;0.31462140000076033;2635
85;0.31879140000091866;2637
86;0.32148400000005495;2637
87;0.324457299999267;2638
88;0.3276442999995197;2638
89;0.3315736000004108;2639
90;0.33415419999982987;2639
91;0.33754860000044573;2639
92;0.3416388999994524;2639
93;0.3455754999995406;2640
94;0.34812720000081754;2639
95;0.35267709999970975;2640
96;0.35546079999949143;2640
97;0.3585048999993887;2639
98;0.36163110000052257;2639
99;0.3652999000005366;2638
100;0.36807969999972556;2638
101;0.3711371000008512;2638
102;0.3741640999996889;2638
103;0.3770746999998664;2638
104;0.3801277000002301;2638
105;0.3831501999993634;2638
106;0.38622140000006766;2637
107;0.389215700000932;2637
108;0.39219319999938307;2636
109;0.3952344000008452;2635
110;0.3979894999993121;2635
111;0.40134580000085407;2635
112;0.4042336000002251;2634
113;0.40715889999955834;2634
114;0.4102536999998847;2634
115;0.4131847000007838;2634
116;0.4161148000002868;2633
117;0.4191762000009476;2633
118;0.42230109999945853;2633
119;0.4252102000009472;2632
120;0.42813179999939166;2631
121;0.43117780000102357;2631
122;0.43421330000091984;2631
123;0.43719899999996414;2630
124;0.44021579999935057;2630
125;0.4433403000002727;2630
126;0.44621039999947243;2629
127;0.44935029999942344;2629
128;0.4522268000000622;2629
129;0.45508110000082524;2628
130;0.45815700000093784;2627
131;0.4609350999999151;2627
132;0.46431680000023334;2628
133;0.4672031000009156;2627
134;0.47033379999993485;2626
135;0.4732151000007434;2626
136;0.4763342999995075;2625
137;0.47921390000010433;2624
138;0.482106900000872;2624
139;0.4852227000010316;2623
140;0.4882164999999077;2622
141;0.4913362999996025;2622
142;0.49420900000041;2621
143;0.49735270000019227;2620
144;0.5002117999993061;2620
145;0.5033502000005683;2619
146;0.5062264999996842;2618
147;0.5093952999995963;2617
148;0.5122281999992992;2616
149;0.5151009000001068;2615
150;0.5183395000003657;2614
151;0.521207300000242;2613
152;0.5240274000007048;2612
153;0.5272079999995185;2611
154;0.5303356999993412;2610
155;0.533204499999556;2608
156;0.5363930000003165;2607
157;0.5392446999994718;2606
158;0.5421253000004072;2605
159;0.5451207999994949;2603
160;0.5480869000002713;2602
161;0.5513384000005317;2601
162;0.5539810999998735;2600
163;0.5571175999994011;2599
164;0.5603430999999546;2598
165;0.5633376000005228;2596
166;0.5663373999996111;2595
167;0.5693344999999681;2594
168;0.572330700000748;2593
169;0.5753492999992886;2591
170;0.5783367999993061;2591
171;0.5811484000005294;2590
172;0.5843409999997675;2589
173;0.587355400000888;2588
174;0.5903362999997626;2587
175;0.5933390999998664;2585
176;0.5963453999993362;2584
177;0.5993379999999888;2583
178;0.6021354000004067;2581
179;0.6053563999994367;2580
180;0.6083309000005102;2579
181;0.611348899999939;2577
182;0.6144232000006014;2576
183;0.6173534999998083;2574
184;0.6203432000002067;2573
185;0.6233406999999715;2571
186;0.6263335999992705;2569
187;0.6293574000010267;2568
188;0.6323456999998598;2566
189;0.6353383999994549;2565
190;0.6383531999999832;2563
191;0.6413248000008025;2561
192;0.6443414999994275;2558
193;0.6473430999994889;2557
194;0.6503484000004391;2555
195;0.6533431999996537;2553
196;0.6563427000000956;2551
197;0.6593376000000717;2549
198;0.6623319999998785;2548
199;0.6650936000005458;2546
200;0.6683405000003404;2545
201;0.6713397999992594;2542
202;0.6743370000003779;2540
203;0.6772087999997893;2539
204;0.6801412999993772;2537
205;0.6831118000009155;2535
206;0.6860999000000447;2534
207;0.6891137000002345;2531
208;0.6920645000009245;2530
209;0.6957082000008086;2529
210;0.6980352999999013;2527
211;0.7016796999996586;2525
212;0.7055254000006244;2523
213;0.709626500000013;2520
214;0.7137110999992728;2518
215;0.7165383000010479;2515
216;0.7194326000008004;2514
217;0.7225883000010072;2512
218;0.7254382000010082;2509
219;0.7295274999996764;2507
220;0.7322961000008945;2504
221;0.7361899000006815;2502
222;0.7392104999998992;2500
223;0.7420015999996394;2498
224;0.7453002000002016;2496
225;0.7480056999993394;2494
226;0.7512879000005341;2492
227;0.7542749999993248;2490
228;0.7572906999994302;2488
229;0.7602819000003365;2485
230;0.7633255000000645;2484
231;0.7661196000008204;2481
232;0.7693005000000994;2478
233;0.7723172999994858;2476
234;0.7753178000002663;2473
235;0.778315699999439;2471
236;0.7811204999998154;2469
237;0.7841783999992913;2467
238;0.7869645999999193;2466
239;0.7901529999999184;2464
240;0.7931769999995595;2462
241;0.7962225999999646;2460
242;0.799235000000408;2458
243;0.8022363000000041;2456
244;0.8052879000006214;2453
245;0.8083191999994597;2451
246;0.8113233999993099;2449
247;0.8143620999999257;2447
248;0.8173139000009542;2445
249;0.8203205000008893;2443
250;0.8233350000009523;2441
251;0.8261927999992622;2439
252;0.8292037000010168;2437
253;0.8320796000007249;2435
254;0.8350477000003593;2433
255;0.8369122000003699;2431
256;0.8390395999995235;2430
257;0.8422212000004947;2429
258;0.8455895000006421;2427
259;0.8494831999996677;2425
260;0.8525141999998596;2422
261;0.8554561000000831;2420
262;0.8596073000007891;2418
263;0.8637319000008574;2415
264;0.8665624999994179;2412
265;0.8705793000008271;2410
266;0.8731674000009662;2407
267;0.8760856000008062;2406
268;0.8792052999997395;2403
269;0.8821946999996726;2401
270;0.8850607000003947;2399
271;0.8880231000002823;2397
272;0.8900142000002234;2395
273;0.8918917000009969;2393
274;0.8939446000003954;2392
275;0.8959243999997852;2390
276;0.89805030000025;2389
277;0.8998692999994091;2388
278;0.9018787000004522;2386
279;0.903891100000692;2385
280;0.905851999999868;2383
281;0.9079127999993943;2382
282;0.9098204000001715;2380
283;0.9118242000004102;2379
284;0.9138194000006479;2378
285;0.9159199999994598;2376
286;0.918910300000789;2374
287;0.9208822000000509;2372
288;0.9229943000009371;2371
289;0.9250062000010075;2370
290;0.9269263999995019;2368
291;0.9289373999999953;2367
292;0.9309207000005699;2365
293;0.9329522999996698;2364
294;0.9349418000001606;2363
295;0.9369630000001052;2361
296;0.9388966999995318;2361
297;0.9408956999996008;2359
298;0.9429419999996753;2358
299;0.9448505000000296;2357
300;0.946814799999629;2356
301;0.9488789000006363;2354
302;0.9508734999999433;2353
303;0.9528551999992487;2352
304;0.9549124999994092;2350
305;0.9568914999999834;2349
306;0.9589004999997996;2348
307;0.9608996999995725;2347
308;0.9629124000002776;2345
309;0.9649671000006492;2344
310;0.9680141000008007;2343
311;0.9699173999997583;2341
312;0.9719910000003438;2339
313;0.9739933000000747;2338
314;0.9759988000005251;2337
315;0.977867999999944;2335
316;0.9798888999994233;2334
317;0.9819385000009788;2333
318;0.9838971999997739;2332
319;0.9858960000001389;2330
320;0.9880300000004354;2329
321;0.9898009999997157;2328
322;0.9918281000009301;2327
323;0.9938812000000325;2325
324;0.9959259999995993;2324
325;0.9978601000002527;2323
326;0.9999143000004551;2322
327;1.0018359999994573;2321
328;1.003814699999566;2319
329;1.0058100000005652;2318
330;1.007788700000674;2317
331;1.0097898000003624;2316
332;1.0118218999996316;2315
333;1.0137876999997388;2314
334;1.0158245000002353;2312
335;1.0177987000006397;2311
336;1.0198749999999563;2310
337;1.022111300000688;2309
338;1.0250151000000187;2308
339;1.0270679000004748;2306
340;1.02904800000033;2305
341;1.0308765999998286;2304
342;1.0332694000007905;2303
343;1.0360008999996353;2301
344;1.0379508000005444;2300
345;1.040889199999583;2299
346;1.042813500000193;2297
347;1.044768899999326;2297
348;1.0467621000007057;2296
349;1.0489276999996946;2295
350;1.0521389000005001;2293
351;1.0547991000003094;2292
352;1.056809499999872;2291
353;1.0587940999994316;2290
354;1.060823600000731;2289
355;1.0627755000004981;2288
356;1.0649290000001201;2286
357;1.0672205999999278;2285
358;1.0700445000002219;2284
359;1.0720533000003343;2283
360;1.0749790999998368;2282
361;1.0769369000008737;2281
362;1.0788551999994525;2280
363;1.080812899999728;2279
364;1.0828638000002684;2278
365;1.0847993000006682;2277
366;1.0867973000003985;2276
367;1.0887758999997459;2275
368;1.0907664000005752;2274
369;1.0928094999999303;2273
370;1.094779600000038;2272
371;1.09681190000083;2271
372;1.0988981000009517;2270
373;1.101030300000275;2269
374;1.103029300000344;2269
375;1.1049734999996872;2268
376;1.1069552000008116;2267
377;1.1089190000002418;2266
378;1.1109381999995094;2265
379;1.112953899999411;2264
380;1.115068400000382;2264
381;1.117004600000655;2263
382;1.119001200000639;2262
383;1.1210179999998218;2261
384;1.1230212000009487;2260
385;1.124951100000544;2260
386;1.126952099999471;2259
387;1.128973999999289;2258
388;1.130892400000448;2257
389;1.1329872000005707;2256
390;1.1359816000003775;2256
391;1.1379598999992595;2255
392;1.1399798000002193;2254
393;1.1430029000002833;2253
394;1.145133199999691;2252
395;1.148026700000628;2251
396;1.1512263999993593;2250
397;1.1541061000007176;2249
398;1.1570148000009794;2248
399;1.1589428000006592;2247
400;1.1610461000000214;2247
401;1.1630549000001338;2246
402;1.1650248999994801;2245
403;1.166986199999883;2245
404;1.1702074000004359;2244
405;1.172920700000759;2243
406;1.1748160000006465;2243
407;1.1768088000007992;2242
408;1.1787953000002744;2242
409;1.180904400000145;2241
410;1.1828657000005478;2241
411;1.1848927000010008;2241
412;1.1868868000001385;2240
413;1.1888570000010077;2240
414;1.1908380999993824;2239
415;1.1928444000004674;2239
416;1.1948835999992298;2238
417;1.1968682999995508;2238
418;1.1988913000004686;2238
419;1.2010274999993271;2237
420;1.2029015000007348;2237
421;1.2049060000008467;2237
422;1.206900000001042;2236
423;1.2089011000007304;2236
424;1.2108991000004607;2235
425;1.2129122000005736;2235
426;1.2149822000010317;2235
427;1.2179553999994823;2234
428;1.2200124999999389;2234
429;1.2220168999992893;2233
430;1.2240894000005937;2233
431;1.226954100000512;2233
432;1.2289421999994374;2233
433;1.2309077000008983;2233
434;1.2340901000006852;2232
435;1.2372699000006833;2232
436;1.2402177999993;2231
437;1.2432427000003372;2231
438;1.2460508000003756;2231
439;1.2479299000005994;2230
440;1.250264000000243;2230
441;1.2533127000006061;2230
442;1.2563301000009233;2230
443;1.2592977000003884;2230
444;1.2619902999995247;2229
445;1.2651074000004883;2229
446;1.2682908999995561;2229
447;1.271154399999432;2229
448;1.2739856000007421;2229
449;1.2760035999999673;2229
450;1.2779831000007107;2229
451;1.2809598999992886;2230
452;1.2841685000003054;2230
453;1.2872275000008813;2230
454;1.290145200000552;2230
455;1.2929602000003797;2231
456;1.2960727999998198;2231
457;1.2991770999997243;2231
458;1.3021848999997019;2230
459;1.305158900000606;2230
460;1.3079250999999203;2231
461;1.311192099999971;2231
462;1.3141032000003179;2231
463;1.3171081000000413;2232
464;1.3202111000009609;2232
465;1.3232554999995045;2232
466;1.3261882000006153;2232
467;1.329336599999806;2233
468;1.3321869000010338;2233
469;1.3351904999999533;2233
470;1.3381843999995908;2233
471;1.3413682999998855;2234
472;1.344237900000735;2235
473;1.3471749000000273;2235
474;1.3503199999995559;2236
475;1.3532133000007889;2236
476;1.3559879000004003;2237
477;1.3578882000001613;2237
478;1.3601116000008915;2238
479;1.3619457000004331;2238
480;1.364002000000255;2238
481;1.3660844000005454;2239
482;1.3680758999998943;2239
483;1.369933800000581;2240
484;1.3720837000000756;2240
485;1.3739800000003015;2241
486;1.3759251999999833;2241
487;1.3780633999995189;2242
488;1.379978900000424;2242
489;1.38292840000031;2243
490;1.3850404000004346;2243
491;1.387054500000886;2244
492;1.3889350000008562;2244
493;1.3910613999996713;2245
494;1.3930708000007144;2245
495;1.3950418999993417;2246
496;1.3970320999997057;2246
497;1.399048799999946;2247
498;1.400972900000852;2247
499;1.40390060000027;2248
500;1.407093600000735;2249
501;1.4091917000005196;2250
502;1.4120559000002686;2250
503;1.4140176000000793;2251
504;1.4170429000005242;2252
505;1.42009809999945;2253
506;1.4220182999997633;2254
507;1.4240692999992461;2254
508;1.4259053999994649;2255
509;1.4280579999995098;2255
510;1.430927999999767;2256
511;1.432920400000512;2257
512;1.4350795000009384;2258
513;1.4369212000001426;2259
514;1.439088000000993;2259
515;1.4410604000004241;2260
516;1.443959399999585;2261
517;1.4460945000009815;2262
518;1.4489269999994576;2262
519;1.4520948999997927;2263
520;1.4540001999994274;2265
521;1.4570132000008016;2266
522;1.460095899999942;2267
523;1.4620347000000038;2268
524;1.4649344000008568;2269
525;1.4669243000007555;2271
526;1.468999900000199;2271
527;1.4720617000002676;2272
528;1.475079600000754;2273
529;1.4779235999994853;2275
530;1.4801428000009764;2276
531;1.4820221000009042;2277
532;1.4849629000000277;2278
533;1.4880960999998933;2279
534;1.490009099999952;2280
535;1.493086399999811;2281
536;1.4949890000007144;2283
537;1.4969072000003507;2284
538;1.4991004999992583;2285
539;1.5020905000001221;2286
540;1.5039930000002641;2287
541;1.5061019999993732;2287
542;1.5090872000000672;2289
543;1.5110502000006818;2290
544;1.514270800000304;2291
545;1.5176214000002801;2293
546;1.5207092000000557;2295
547;1.5246569000009913;2297
548;1.528169799999887;2299
549;1.5309952000006888;2300
550;1.5343231999995623;2302
551;1.5371863000000303;2304
552;1.5403272999992623;2305
553;1.5430118000003858;2307
554;1.546087400000033;2309
555;1.5490635000005568;2311
556;1.5522347000005539;2313
557;1.5554298000006384;2315
558;1.558074200000192;2316
559;1.561733300000924;2318
560;1.5651803000000655;2320
561;1.5686729999997624;2322
562;1.5725593000006484;2324
563;1.5765721000007034;2326
564;1.580689300000813;2329
565;1.5845272000005934;2331
566;1.5871645000006538;2334
567;1.5902358000003005;2335
568;1.5932367999994312;2337
569;1.5962409999992815;2339
570;1.5992557999998098;2340
571;1.6023611000000528;2342
572;1.6052125999995042;2344
573;1.6083842999996705;2346
574;1.6112150999997539;2347
575;1.6140520999997534;2349
576;1.6172213999998348;2351
577;1.6201672999995935;2353
578;1.62328350000098;2354
579;1.6262206999999762;2356
580;1.6293322000001353;2358
581;1.6322118000007322;2360
582;1.6353340999994543;2362
583;1.6382114000007277;2364
584;1.6413231999995332;2366
585;1.6442064000002574;2368
586;1.6471896000002744;2370
587;1.6503343000003952;2372
588;1.6530249000006734;2374
589;1.6563327000003483;2376
590;1.6592120999994222;2378
591;1.6620132000007288;2379
592;1.6652202000004763;2381
593;1.668372800000725;2383
594;1.671296500000608;2385
595;1.6742094000001089;2387
596;1.6773431000001437;2389
597;1.6802095000002737;2391
598;1.683341100000689;2393
599;1.6862110000001849;2396
600;1.6889284000008047;2398
601;1.692250600000989;2400
602;1.6952020000007906;2402
603;1.6980297999998584;2404
604;1.7012140999995609;2406
605;1.704343900000822;2409
606;1.7072091000009095;2411
607;1.7103323000010278;2413
608;1.7132070999996358;2415
609;1.7161214000007021;2417
610;1.7192211000001407;2419
611;1.722202400000242;2421
612;1.7253479000009975;2423
613;1.7282052000009571;2426
614;1.7310276000007434;2428
615;1.734179299999596;2430
616;1.73700319999989;2433
617;1.739997399999993;2435
618;1.7431735999998637;2437
619;1.7463179000005766;2439
620;1.7492105000001175;2441
621;1.7523345999998128;2444
622;1.7551739999998972;2446
623;1.758342499999344;2448
624;1.7612076999994315;2450
625;1.7638903000006394;2452
626;1.7672567999998137;2453
627;1.7702095000004192;2455
628;1.7733422000001156;2457
629;1.7762105000001611;2460
630;1.7789974000006623;2461
631;1.7820025000000896;2463
632;1.7853506999999809;2465
633;1.788209199999983;2467
634;1.7912317999998777;2469
635;1.7941823000001023;2472
636;1.7972043000008853;2473
637;1.80034809999961;2475
638;1.8032118000010087;2478
639;1.806339000000662;2480
640;1.8092063999993115;2482
641;1.8123396000009961;2484
642;1.8152179999997315;2486
643;1.8183740000004036;2488
644;1.8212148000002344;2491
645;1.8239684000000125;2493
646;1.8272581000001082;2494
647;1.8302098000003753;2497
648;1.8333371999997325;2498
649;1.8363394999996672;2500
650;1.83934120000049;2502
651;1.8420511000003899;2504
652;1.843951000000743;2506
653;1.8460271999992983;2507
654;1.8479458000001614;2508
655;1.8500665000010486;2509
656;1.851998399999502;2511
657;1.8540733000008913;2512
658;1.855910700000095;2513
659;1.8578529999995226;2515
660;1.8601094000005105;2516
661;1.863092499999766;2517
662;1.8649298000000272;2519
663;1.8681008000003203;2520
664;1.8699830999994447;2522
665;1.8730398999996396;2523
666;1.8760947000009764;2525
667;1.8780009000001883;2527
668;1.8809170999993512;2529
669;1.8830675999997766;2531
670;1.8850079000003461;2533
671;1.8869250000007014;2534
672;1.8890222999998514;2535
673;1.8909997000009753;2536
674;1.8930094999996072;2538
675;1.8960965000005672;2539
676;1.899095099999613;2541
677;1.902718699999241;2543
678;1.9067291999999725;2546
679;1.9107270999993489;2548
680;1.914490900000601;2550
681;1.917633000000933;2552
682;1.9216443000004801;2555
683;1.9243568000001687;2557
684;1.9273267999997188;2560
685;1.930336499999612;2561
686;1.9333339999993768;2563
687;1.9363272999999026;2564
688;1.9393271000008099;2566
689;1.9423869000002014;2568
690;1.945357000000513;2569
691;1.9482819000004383;2571
692;1.951118700000734;2572
693;1.9540544999999838;2574
694;1.9577265000007174;2575
695;1.9617080000007263;2577
696;1.9651964999993652;2579
697;1.9680998000003456;2580
698;1.9712958000000071;2581
699;1.9743216999995639;2583
700;1.9773139000008086;2584
701;1.9803410999993503;2586
702;1.9830265000000509;2588
703;1.9863435999996;2589
704;1.9893365999996604;2591
705;1.992336900000737;2592
706;1.9953401000002486;2594
707;1.9980620000005729;2595
708;2.0000307000009343;2596
709;2.0033533000005264;2597
710;2.006331099999443;2598
711;2.009335099999589;2600
712;2.012350000000879;2601
713;2.0153415000004316;2602
714;2.0183434000009584;2603
715;2.0213249000007636;2604
716;2.02434170000015;2605
717;2.0273242999992362;2606
