;time;amplitude
0;0.003967799999372801;2433
1;0.008386699999391567;2433
2;0.013531399999919813;2434
3;0.018270199998369208;2435
4;0.02364789999955974;2436
5;0.028657499999098945;2437
6;0.0338008999988233;2438
7;0.03802439999890339;2439
8;0.04212849999930768;2440
9;0.046256499999799416;2441
10;0.04968609999923501;2441
11;0.054011599999284954;2442
12;0.058209399998304434;2442
13;0.062145299998519477;2443
14;0.06602709999970102;2443
15;0.0696749999988242;2444
16;0.07419049999953131;2445
17;0.07814429999962158;2445
18;0.08192719999897236;2446
19;0.08574159999989206;2447
20;0.09014209999986633;2447
21;0.09410609999940789;2448
22;0.09771529999852646;2449
23;0.10109859999829496;2449
24;0.10513649999847985;2450
25;0.10897809999914898;2450
26;0.11270189999959257;2451
27;0.11607139999978244;2451
28;0.11965689999851747;2452
29;0.12414859999989858;2452
30;0.12779939999927592;2453
31;0.13212649999877613;2454
32;0.13567389999843726;2454
33;0.13899259999925562;2454
34;0.14296309999917867;2455
35;0.14555749999999534;2456
36;0.15009439999994356;2456
37;0.15402419999918493;2457
38;0.15801589999864518;2457
39;0.1610231999984535;2457
40;0.16499449999901117;2458
41;0.16906359999848064;2458
42;0.17303289999836124;2458
43;0.17702029999963997;2458
44;0.18109049999839044;2459
45;0.18502629999966302;2459
46;0.18909569999959785;2459
47;0.19200089999867487;2459
48;0.19602769999983138;2460
49;0.20003389999874344;2460
50;0.20402019999892218;2460
51;0.2087863999986439;2460
52;0.2118174999995972;2461
53;0.2149993999992148;2461
54;0.21908949999851757;2461
55;0.22259979999944335;2461
56;0.22569729999850097;2461
57;0.22881019999840646;2462
58;0.2317005999993853;2462
59;0.23474099999839382;2462
60;0.2374969999982568;2462
61;0.24070879999999306;2462
62;0.2437155999996321;2462
63;0.2467157999999472;2463
64;0.2497213999995438;2463
65;0.2525272999992012;2463
66;0.2557238999997935;2463
67;0.2585747999983141;2463
68;0.26170689999889873;2463
69;0.26471239999955287;2463
70;0.26772129999881145;2463
71;0.2705075999983819;2463
72;0.27371129999846744;2463
73;0.2767110999993747;2463
74;0.27971139999863226;2463
75;0.28271439999844006;2463
76;0.2854715999983455;2463
77;0.2887137999987317;2462
78;0.2917208999988361;2462
79;0.2947212999988551;2462
80;0.2977149999987887;2462
81;0.30059089999849675;2461
82;0.30372039999929257;2461
83;0.3067117999999027;2460
84;0.30970499999966705;2460
85;0.3127117999993061;2460
86;0.3156872999988991;2459
87;0.3187010999990889;2459
88;0.32171809999999823;2459
89;0.3247053999984928;2459
90;0.327705399999104;2459
91;0.330715499998405;2458
92;0.3334750999983953;2459
93;0.33657569999923;2458
94;0.33968949999871256;2457
95;0.34268989999873156;2458
96;0.34569079999891983;2458
97;0.34869349999826227;2457
98;0.3517147999991721;2457
99;0.35469429999830027;2456
100;0.3576870999986568;2456
101;0.36069099999986065;2456
102;0.36344499999904656;2456
103;0.36668699999972887;2455
104;0.36944749999929627;2455
105;0.37268679999942833;2455
106;0.3756876999996166;2454
107;0.37867129999904137;2454
108;0.3816871999988507;2454
109;0.3846882999987429;2454
110;0.38768179999897256;2453
111;0.3906874999993306;2452
112;0.3936710999987554;2452
113;0.3966843999987759;2452
114;0.39969079999900714;2451
115;0.4024268999983178;2451
116;0.4056866999999329;2451
117;0.4086920999998256;2450
118;0.41167809999933525;2450
119;0.41470159999880707;2449
120;0.4176917999993748;2449
121;0.4206828999995196;2449
122;0.4236927999991167;2449
123;0.42651699999987613;2449
124;0.4296814999997878;2448
125;0.4326917999987927;2447
126;0.43541979999827163;2447
127;0.4386869999998453;2447
128;0.4414010000000417;2446
129;0.4446725999987393;2446
130;0.4476535999983753;2445
131;0.4506582999983948;2445
132;0.45346299999982875;2445
133;0.4566519999989396;2444
134;0.4596399999991263;2443
135;0.46263099999850965;2443
136;0.46562749999975495;2443
137;0.4687051999990217;2442
138;0.4715398999996978;2442
139;0.4745538999995915;2442
140;0.4775750999997399;2441
141;0.4808506999997917;2440
142;0.48487589999967895;2440
143;0.4879618999984814;2439
144;0.49201109999921755;2438
145;0.4960025999989739;2437
146;0.5000080999998318;2437
147;0.5039656999997533;2436
148;0.5080040999982884;2435
149;0.512001599998257;2435
150;0.515993899998648;2434
151;0.519567499999539;2434
152;0.5240326999992249;2433
153;0.5280135999983031;2433
154;0.53201049999916;2432
155;0.5365213999994012;2431
156;0.5400090999992244;2431
157;0.5440037999997003;2431
158;0.5480207999989943;2430
159;0.5520701999994344;2429
160;0.5560673999989376;2429
161;0.5600184999984776;2428
162;0.5639940999990358;2427
163;0.5680146999984572;2426
164;0.5709579999984271;2426
165;0.5750382999995054;2425
166;0.579003199998624;2424
167;0.582989999998972;2423
168;0.5865981999995711;2422
169;0.5899517999987438;2421
170;0.5940486999988934;2421
171;0.5975062999987131;2420
172;0.6008369999999559;2419
173;0.6034915999989607;2418
174;0.6068425999983447;2418
175;0.6098122999992484;2417
176;0.6128650999999081;2416
177;0.6158210999983567;2416
178;0.6187023999991652;2415
179;0.6216121999987081;2415
180;0.6246172999999544;2414
181;0.6276036999988719;2414
182;0.6306382999991911;2413
183;0.6336281999992934;2412
184;0.6366001999995206;2412
185;0.6395777999987331;2411
186;0.642595799999981;2411
187;0.6455114000000322;2410
188;0.6486057999991317;2410
189;0.6515781999987666;2409
190;0.6545802000000549;2409
191;0.6575778999995237;2409
192;0.6604876999990665;2409
193;0.6636105999987194;2409
194;0.666598999998314;2408
195;0.6694674999998824;2407
196;0.6725899999983085;2407
197;0.6755888999996387;2407
198;0.6785869999985152;2406
199;0.68157809999866;2405
200;0.6845942999989347;2404
201;0.6875778999983595;2404
202;0.6905995999986771;2404
203;0.6935176999995747;2403
204;0.6965296999987913;2403
205;0.6996229999986099;2402
206;0.7024351999989449;2402
207;0.7055948999986867;2401
208;0.7085609999994631;2402
209;0.7116108999998687;2401
210;0.714597700000013;2401
211;0.7176814999984344;2400
212;0.7206984999993438;2400
213;0.7234721999993781;2400
214;0.7264916999993147;2400
215;0.7294339000000036;2399
216;0.7324168999984977;2399
217;0.7356081999987509;2398
218;0.7386294999996608;2398
219;0.7419022999984008;2398
220;0.7459671999986313;2397
221;0.7498976999995648;2397
222;0.7539304999991145;2396
223;0.7569055999992997;2396
224;0.7609752999996999;2396
225;0.764946899998904;2396
226;0.7688496999999188;2395
227;0.7718898999992234;2395
228;0.7759857999990345;2395
229;0.779962799999339;2394
230;0.7839696999999433;2393
231;0.78799059999983;2393
232;0.7919525999986945;2392
233;0.7959656999992148;2392
234;0.7999759999984235;2391
235;0.8039212999992742;2391
236;0.8079649999999674;2391
237;0.811971099999937;2391
238;0.8159718999995675;2391
239;0.818238999998357;2390
240;0.8203943999997136;2391
241;0.8227592999992339;2391
242;0.8259159999997792;2391
243;0.8299644999988232;2390
244;0.8338958999993338;2390
245;0.8379757999991853;2390
246;0.8419398999994883;2390
247;0.8459720999999263;2390
248;0.8494929999997112;2390
249;0.8524649999999383;2391
250;0.8556630999992194;2391
251;0.8586615999993228;2391
252;0.8616564999992988;2391
253;0.8644038999991608;2391
254;0.8676095999999234;2392
255;0.870725399998264;2391
256;0.8737584999998944;2391
257;0.8767449999995733;2391
258;0.8796630999986519;2391
259;0.8827451999986806;2391
260;0.8854203999999299;2392
261;0.8887393999993947;2392
262;0.8916984999996203;2391
263;0.8947465999990527;2392
264;0.8977418999984366;2392
265;0.9007505999998102;2392
266;0.9037726999995357;2392
267;0.9067187000000558;2392
268;0.9097285999996529;2392
269;0.9127233999988675;2392
270;0.9157423999986349;2393
271;0.9186100999995688;2393
272;0.9217426999985037;2393
273;0.9247511999983544;2393
274;0.9276904999987892;2393
275;0.9306718999996519;2393
276;0.9336862999989535;2394
277;0.9366886999996495;2394
278;0.9396849999993719;2394
279;0.9422784999987925;2394
280;0.9445689999993192;2394
281;0.9476985999990575;2395
282;0.9503979999990406;2395
283;0.9533273999986704;2396
284;0.9553958999986207;2396
285;0.9572792999988451;2396
286;0.9592913999986195;2397
287;0.9613176999991992;2397
288;0.9645442999990337;2397
289;0.9662677999986045;2398
290;0.9684084999989864;2398
291;0.971456199999011;2398
292;0.9744112999997014;2398
293;0.976331099998788;2398
294;0.9783862999993289;2399
295;0.9803531999987172;2399
296;0.9834637999992992;2399
297;0.9864809999999125;2400
298;0.9894605999998021;2400
299;0.9924433999985922;2401
300;0.9955041999983223;2401
301;0.9984611999989284;2402
302;1.0018406999988656;2402
303;1.0060778999995819;2403
304;1.0099459999983083;2404
305;1.013979699999254;2404
306;1.0179533999998966;2405
307;1.0209614999985206;2406
308;1.0249889999995503;2406
309;1.028966500000024;2406
310;1.0329661999985547;2407
311;1.0354241999993974;2407
312;1.038910899998882;2407
313;1.0429400999983045;2408
314;1.0469834999985324;2408
315;1.0506057999991754;2409
316;1.0538379999998142;2410
317;1.0568822999994154;2410
318;1.0607632999999623;2410
319;1.0637208999996801;2411
320;1.0664432999983546;2411
321;1.0694105999991734;2412
322;1.0726686999987578;2412
323;1.075642699999662;2413
324;1.0787043999989692;2413
325;1.0816642999998294;2413
326;1.0847036999984994;2414
327;1.0877486999997927;2414
328;1.0907264999987092;2415
329;1.0937260999999125;2415
330;1.09653089999847;2415
331;1.0995325999992929;2416
332;1.1023594999987836;2416
333;1.1054991999990307;2417
334;1.109106999998403;2418
335;1.1130888999996387;2418
336;1.1169122999999672;2419
337;1.1209933999998611;2419
338;1.1249660999983462;2420
339;1.1289810999987822;2420
340;1.1329778999988775;2421
341;1.136953999999605;2422
342;1.1409761999984767;2422
343;1.144844499998726;2423
344;1.1489844999996421;2424
345;1.1524814999993396;2425
346;1.1559150999983103;2425
347;1.1599765999999363;2426
348;1.1629716999996162;2426
349;1.166777299999012;2427
350;1.169470699998783;2428
351;1.1727014999996754;2429
352;1.1757073999997374;2429
353;1.1787050999992061;2429
354;1.18173189999834;2430
355;1.1846953999993275;2431
356;1.1877254999999423;2432
357;1.190735299998778;2432
358;1.1945914999996603;2432
359;1.1977375999995274;2433
360;1.2007393999992928;2434
361;1.2037511999988055;2434
362;1.2067122999997082;2435
363;1.2097225999987131;2435
364;1.2127105999988999;2436
365;1.215712799999892;2437
366;1.2191965999991226;2438
367;1.2232068999983312;2438
368;1.2280781999997998;2439
369;1.2319884999997157;2440
370;1.2359542999984114;2440
371;1.2401995999989595;2441
372;1.2434977999982948;2441
373;1.2465476999987004;2442
374;1.249539199998253;2442
375;1.2524272999999084;2443
376;1.2554152999982762;2443
377;1.258563999999751;2444
378;1.2615988999987167;2444
379;1.2645895999994536;2445
380;1.2675965999987966;2446
381;1.2703151999994589;2446
382;1.2723339999993186;2446
383;1.2755159999996977;2447
384;1.278857399998742;2447
385;1.2829323999994813;2448
386;1.287023799999588;2448
387;1.2912691999990784;2449
388;1.2964340999988053;2450
389;1.301528199999666;2450
390;1.3047781999994186;2451
391;1.3078128999986802;2451
392;1.31203479999931;2451
393;1.3156629999994038;2452
394;1.3184940999999526;2452
395;1.321625499998845;2453
396;1.324633399999584;2453
397;1.3276310999990528;2454
398;1.3306306999984372;2454
399;1.3336313999989216;2454
400;1.336626399999659;2455
401;1.3396263999984512;2455
402;1.3426331999999093;2455
403;1.3456293999988702;2456
404;1.3484877999999298;2456
405;1.3515533999998297;2456
406;1.3546246999994764;2457
407;1.3576325999983965;2458
408;1.3607403999994858;2458
409;1.363722999998572;2458
410;1.3667375999993965;2457
411;1.3697324999993725;2458
412;1.3727260999985447;2459
413;1.3757350999985647;2459
414;1.3787398999993457;2459
415;1.381490899999335;2459
416;1.3845210999988922;2460
417;1.387472999998863;2460
418;1.3910417999995843;2460
419;1.3950638999995135;2460
420;1.3990987999986828;2460
421;1.4023965999986103;2459
422;1.405687799999214;2460
423;1.4087083999984316;2460
424;1.4114799999988463;2460
425;1.4146095999985846;2460
426;1.4175424999993993;2460
427;1.4205349999992904;2461
428;1.4235209999988;2461
429;1.4265402999990329;2461
430;1.429864899999302;2461
431;1.4340415999995457;2461
432;1.43831869999849;2461
433;1.4433073999989574;2462
434;1.4469950999991852;2461
435;1.4512317999997322;2462
436;1.4547692999985884;2462
437;1.4577539999991131;2462
438;1.4609108999993623;2462
439;1.4651259999991453;2463
440;1.468795599999794;2463
441;1.471980899999835;2462
442;1.474797499999113;2462
443;1.4778096999998525;2462
444;1.4808933999993315;2462
445;1.485083300000042;2462
446;1.4890221999994537;2462
447;1.4930241999991267;2461
448;1.4970187999988411;2461
449;1.500639099998807;2461
450;1.5035535999995773;2460
451;1.5069908999994368;2460
452;1.5108175999994273;2459
453;1.5148194999983389;2459
454;1.5185369999999239;2459
455;1.5220783999993728;2459
456;1.5257009999986622;2458
457;1.5288217999986955;2458
458;1.5327117999986513;2457
459;1.5366550999988249;2457
460;1.5398343999986537;2456
461;1.5428019999999378;2456
462;1.5457811999986006;2457
463;1.5485604999994393;2456
464;1.5514445999997406;2456
465;1.5551292999989528;2456
466;1.5589084999992338;2456
467;1.5631314999991446;2455
468;1.5671036999992793;2455
469;1.5711182999984885;2455
470;1.575122199999896;2455
471;1.5790993999999046;2454
472;1.5830871999987721;2454
473;1.5870685999998386;2453
474;1.5911207999997714;2452
475;1.5951065999997809;2452
476;1.599129999998695;2451
477;1.6025483999983408;2451
478;1.6059963999996398;2451
479;1.6087897999987035;2450
480;1.6118276999986847;2450
481;1.6149838999990607;2449
482;1.6187020999986999;2449
483;1.6216474999982893;2448
484;1.6261180999990756;2448
485;1.6300936999996338;2447
486;1.633598999998867;2447
487;1.6367119999995339;2446
488;1.639980199999627;2446
489;1.6428176999997959;2445
490;1.6458485999992263;2445
491;1.6488757999995869;2444
492;1.6526571999984299;2444
493;1.657133899998371;2443
494;1.6611035999994783;2443
495;1.6651250999984768;2443
496;1.668695200000002;2442
497;1.6718486999998277;2442
498;1.6750091999983852;2441
499;1.6777418999990914;2440
500;1.6806510999995226;2440
501;1.6837980000000243;2439
502;1.6870756999996956;2439
503;1.6911542999987432;2438
504;1.6947259999997186;2438
505;1.6975603999999294;2438
506;1.7005381999988458;2437
507;1.703994399998919;2436
508;1.7080412999985128;2435
509;1.7120566999983566;2434
510;1.7160189999995055;2434
511;1.7199614999990445;2433
512;1.724036099998557;2433
513;1.7267833999994764;2432
514;1.731057499999224;2431
515;1.7350699999988137;2430
516;1.7390445999990334;2429
517;1.7429581999986112;2429
518;1.745972199998505;2428
519;1.7500825999995868;2427
520;1.7540173999987019;2427
521;1.7575831999984075;2426
522;1.7610086999993655;2426
523;1.7650373999986186;2425
524;1.7685785999983636;2424
525;1.7720044999987294;2423
526;1.77499269999862;2423
527;1.7790199999999459;2423
528;1.7829299999993964;2422
529;1.7854812999994465;2421
530;1.788736799999242;2421
531;1.7919450999997935;2420
532;1.796036699999604;2419
533;1.800016199998936;2418
534;1.8041924999997718;2418
535;1.8080176999992545;2417
536;1.8120577999998204;2416
537;1.8160208999997849;2415
538;1.8198835999992298;2415
539;1.8229676999999356;2414
540;1.8270359999987704;2413
541;1.831055099999503;2413
542;1.8350602999998955;2412
543;1.8375051999992138;2412
544;1.841008299999885;2411
545;1.8450518999998167;2411
546;1.8490507999995316;2410
547;1.8524841999987984;2409
548;1.8560002999984135;2409
549;1.860023999999612;2408
550;1.8640183999996225;2407
551;1.8678314999997383;2407
552;1.870990299999903;2407
553;1.8750446999983978;2406
554;1.879009699998278;2406
555;1.883033299998715;2405
556;1.8854092999990826;2405
557;1.8883858999997756;2404
558;1.8914881000000605;2404
559;1.894357899998795;2404
560;1.8972305999996024;2403
561;1.899408899998889;2403
562;1.901378399999885;2403
563;1.9033953999987716;2402
564;1.9054349999987608;2402
565;1.9071958999993512;2402
566;1.9091909999988275;2401
567;1.911253799999031;2401
568;1.91325549999965;2401
569;1.9152433999988716;2400
570;1.9174450999998953;2400
571;1.919289999999819;2399
572;1.9212815999999293;2399
573;1.9232913999985612;2398
574;1.9253190999988874;2398
575;1.9272705999992468;2398
576;1.92931309999949;2398
577;1.9313879999990604;2398
578;1.9332381999993231;2397
579;1.935206999998627;2397
580;1.9373320999984571;2397
581;1.9394041999985348;2397
582;1.9414159999996627;2396
583;1.943377399999008;2396
584;1.945291999998517;2396
585;1.947299599998587;2396
586;1.9493242999997165;2396
587;1.9513397999999142;2395
588;1.9534214999985124;2395
589;1.955393299998832;2395
590;1.9573947999997472;2394
591;1.9594163999990997;2394
592;1.9614100999988295;2394
593;1.9634355999987747;2394
594;1.9654579999987618;2394
595;1.9673182999995333;2393
596;1.9693386999988434;2393
597;1.9714166999983718;2393
598;1.9734008999985235;2393
599;1.9753755999990972;2392
600;1.9773427000000083;2392
601;1.9793448999989778;2392
602;1.9813007999982801;2392
603;1.9833577999997942;2392
604;1.9853295999982947;2392
605;1.9872474999992846;2392
606;1.9894040999988647;2391
607;1.9914265999996132;2391
608;1.993386099999043;2391
609;1.9953805999994074;2391
610;1.9973465999992186;2391
611;2.000449999999546;2391
612;2.0023494999986724;2391
613;2.0044697999983327;2391
614;2.0063973999986047;2391
615;2.0094695999996475;2391
616;2.011381899999833;2391
617;2.0144634999996924;2391
618;2.0164693999995507;2390
619;2.018301399999473;2391
620;2.0204340999989654;2391
621;2.0223806999983935;2391
622;2.0254713999984233;2391
623;2.027393200000006;2391
624;2.0304613999996945;2391
625;2.033359199998813;2391
626;2.0363735999999335;2391
627;2.038376299999072;2391
628;2.0403550999999425;2391
629;2.0434338999984902;2391
630;2.045338799998717;2392
631;2.048466099999132;2391
632;2.051405499998509;2392
633;2.0534587999991345;2391
634;2.055305899999439;2392
635;2.0574129999986326;2392
636;2.059423599999718;2392
637;2.061417299999448;2392
638;2.0634144999985438;2392
639;2.0654162999999244;2392
640;2.067377800000031;2392
641;2.0695277999984683;2392
642;2.0724535999997897;2392
643;2.074430599999687;2392
644;2.0763766000000032;2392
645;2.079449899998508;2393
646;2.0824519999987388;2393
647;2.0853667999999743;2393
648;2.089022999998633;2393
649;2.0930098999997426;2393
650;2.096997399999964;2393
651;2.101054299999305;2393
652;2.1039093999988836;2393
653;2.106899099999282;2393
654;2.109737499999028;2394
655;2.112778699998671;2394
656;2.1157516999992367;2394
657;2.1184853999984625;2395
658;2.121704299999692;2395
659;2.124620699998559;2395
660;2.12767359999998;2395
661;2.130704399998649;2395
662;2.1336028999994596;2396
663;2.1367057999996177;2396
664;2.1397085999997216;2396
665;2.142705099999148;2397
666;2.1457117999998445;2397
667;2.1483897999987676;2397
668;2.150313099999039;2397
669;2.1534665999988647;2397
670;2.1570929999998043;2398
671;2.1610940999999;2398
672;2.164632599999095;2399
673;2.1679488999998284;2399
674;2.171018199998798;2399
675;2.174723999998605;2400
676;2.177784099998462;2400
677;2.180785399999877;2400
678;2.1837666999999783;2401
679;2.1867525999987265;2401
680;2.1896951999988232;2401
681;2.1927013999993505;2401
682;2.195445599998493;2401
683;2.198731399999815;2402
684;2.2015888999994786;2402
685;2.2047269999984564;2403
686;2.2077172999997856;2403
687;2.2106984999991255;2404
688;2.213752799998474;2404
689;2.216635099999621;2405
690;2.2197168999991845;2405
691;2.2227165999993304;2405
692;2.2256897999996;2406
693;2.2295719999983703;2406
694;2.2327127999997174;2407
695;2.2353883999985555;2407
696;2.238682899998821;2407
697;2.241693599999053;2408
698;2.2446832999994513;2408
699;2.2477112999986275;2409
700;2.2503707999985636;2409
701;2.2536891999989166;2410
702;2.2566921999987244;2410
703;2.259686599998531;2411
704;2.262693099999524;2411
705;2.2656792999987374;2412
706;2.2684130999987246;2412
707;2.2716844999995374;2412
708;2.274344599998585;2413
709;2.277677299998686;2413
710;2.2806867999988754;2414
711;2.2836924999992334;2414
712;2.286689299999125;2415
713;2.289483599999585;2415
714;2.292578399999911;2416
715;2.2955774999991263;2416
716;2.2985805999996956;2417
717;2.3015152999996644;2417
718;2.304584999999861;2418
