;time;amplitude
0;0.005671000000802451;2530
1;0.012645900000279653;2531
2;0.017385400000421214;2532
3;0.02225170000019716;2533
4;0.027247500000157743;2534
5;0.03254170000036538;2535
6;0.037268399999447865;2537
7;0.04253509999944072;2537
8;0.04850869999972929;2538
9;0.0529406999994535;2538
10;0.05684870000004594;2539
11;0.06229920000077982;2540
12;0.06727140000111831;2541
13;0.07214180000119086;2542
14;0.0771788000001834;2543
15;0.08221179999964079;2544
16;0.08566670000072918;2545
17;0.09029999999984284;2545
18;0.0953138000004401;2546
19;0.1002944000010757;2546
20;0.10497140000006766;2546
21;0.10977490000004764;2546
22;0.11409480000111216;2547
23;0.11863980000089214;2547
24;0.12311380000028294;2548
25;0.12702290000015637;2548
26;0.13208490000033635;2549
27;0.1356742000007216;2549
28;0.14009040000019013;2549
29;0.14491389999966486;2550
30;0.14883600000030128;2550
31;0.1530440999995335;2550
32;0.15802919999987353;2550
33;0.1630153000005521;2551
34;0.16698560000077123;2551
35;0.1709733999996388;2551
36;0.17496940000091854;2552
37;0.18001949999961653;2552
38;0.1846808999998757;2552
39;0.1889205999996193;2552
40;0.1929338000009011;2553
41;0.1969991999994818;2552
42;0.20105230000081065;2552
43;0.20601209999949788;2552
44;0.20999470000060683;2553
45;0.21378660000118543;2553
46;0.21791750000011234;2553
47;0.22194630000012694;2552
48;0.22584249999999884;2552
49;0.23080819999995583;2552
50;0.23470000000088476;2552
51;0.23881620000065595;2552
52;0.24396100000012666;2552
53;0.24814689999948314;2552
54;0.25256179999996675;2552
55;0.25553130000116653;2552
56;0.2584084999998595;2552
57;0.2613165000002482;2552
58;0.2642364000002999;2552
59;0.26720969999951194;2552
60;0.27151469999989786;2551
61;0.2741033000002062;2551
62;0.27772530000038387;2551
63;0.2815800999997009;2551
64;0.28561850000005506;2551
65;0.28971780000028957;2551
66;0.2933090999995329;2551
67;0.29622460000064166;2551
68;0.29923520000011194;2551
69;0.3022165000002133;2550
70;0.3058061000010639;2550
71;0.3098353000004863;2550
72;0.31377640000027895;2550
73;0.31753630000093835;2550
74;0.32024319999982254;2550
75;0.3236713000005693;2549
76;0.3266557999995712;2549
77;0.3306601000003866;2549
78;0.3336120000003575;2549
79;0.33623660000012023;2549
80;0.339764300000752;2548
81;0.34360279999964405;2549
82;0.34650110000075074;2549
83;0.34949580000102287;2548
84;0.35233960000005027;2548
85;0.3554796999997052;2548
86;0.358466400000907;2547
87;0.36149199999999837;2547
88;0.364295299999867;2547
89;0.3672000000005937;2546
90;0.3694028999998409;2545
91;0.3724588000004587;2545
92;0.3754460000000108;2546
93;0.37832929999967746;2546
94;0.3814416999994137;2545
95;0.38414469999952416;2545
96;0.3871854999997595;2545
97;0.3901280999998562;2545
98;0.39342690000012226;2545
99;0.39638639999975567;2545
100;0.3993841000010434;2544
101;0.4023107000011805;2544
102;0.4054778999998234;2543
103;0.4084148000001733;2543
104;0.4114236000004894;2543
105;0.4141631000002235;2543
106;0.4171650000007503;2542
107;0.4193520000007993;2542
108;0.4224457000000257;2542
109;0.4253121000001556;2541
110;0.42844760000116366;2541
111;0.4314425000011397;2541
112;0.43406990000039514;2541
113;0.43658529999993334;2540
114;0.4394216000000597;2540
115;0.4423566999994364;2540
116;0.4451779000009992;2540
117;0.4484391999994841;2539
118;0.4511010999995051;2539
119;0.45446260000062466;2539
120;0.4573923999996623;2538
121;0.4601351000001159;2538
122;0.4634064000001672;2537
123;0.4661796000000322;2537
124;0.46815799999967567;2537
125;0.47120540000105393;2537
126;0.47300610000093;2536
127;0.47492220000094676;2536
128;0.47690030000012484;2536
129;0.4789001000008284;2536
130;0.4811938000002556;2536
131;0.4834998000005726;2536
132;0.48600550000082876;2535
133;0.48869899999954214;2535
134;0.49151720000008936;2534
135;0.4943342999995366;2534
136;0.49728549999963434;2534
137;0.50026600000092;2534
138;0.5032313000010618;2534
139;0.5067533000001276;2533
140;0.5107347000011941;2533
141;0.5147797999998147;2533
142;0.5170665000005101;2532
143;0.5193627999997261;2532
144;0.5221467000010307;2532
145;0.524148200000127;2531
146;0.5261540999999852;2531
147;0.5281861000003119;2531
148;0.5301216999996541;2530
149;0.5320171000003029;2530
150;0.5341306999998778;2529
151;0.5360787000008713;2529
152;0.5380636999998387;2529
153;0.5400241000006645;2529
154;0.5419940000010683;2529
155;0.5440364999994927;2529
156;0.5459891999998945;2528
157;0.5480636000011145;2528
158;0.5500073000002885;2527
159;0.5520914999997331;2527
160;0.5541463000008662;2527
161;0.5560392000006686;2527
162;0.5580119999995077;2526
163;0.5600462000002153;2526
164;0.5621209000000817;2526
165;0.5639494999995804;2525
166;0.5659501999998611;2525
167;0.5681791000006342;2525
168;0.5711566999998468;2524
169;0.573073800000202;2523
170;0.5752694000002521;2523
171;0.5780652000012196;2523
172;0.5799838000002637;2522
173;0.5820815000006405;2522
174;0.58404580000024;2521
175;0.5863927000009426;2521
176;0.5891129000010551;2521
177;0.59108390000074;2520
178;0.5930515000000014;2520
179;0.5950609000010445;2519
180;0.5970243000010669;2519
181;0.5990928000010172;2518
182;0.6010016000000178;2518
183;0.6041095000000496;2518
184;0.6060814000011305;2518
185;0.607949400000507;2517
186;0.610083499999746;2516
187;0.6120683999997709;2516
188;0.6139572000010958;2516
189;0.6159542000004876;2515
190;0.6180395999999746;2515
191;0.6210700000010547;2515
192;0.6230789000001096;2515
193;0.625109300000986;2514
194;0.6269922000010411;2514
195;0.6289732999994158;2513
196;0.6309689999998227;2513
197;0.6330321000004915;2512
198;0.6350135000011505;2512
199;0.6370605000010983;2512
200;0.6390941000008752;2512
201;0.6410919999998441;2511
202;0.6430139000003692;2511
203;0.645021700000143;2511
204;0.6469686000000365;2510
205;0.6490408000008756;2510
206;0.6510061000008136;2510
207;0.6530048000004172;2509
208;0.655033099999855;2509
209;0.6570900999995501;2508
210;0.6590495000000374;2508
211;0.6610407999996823;2508
212;0.6630710000008548;2508
213;0.6650368000009621;2507
214;0.6669737000011082;2507
215;0.6691898999997647;2507
216;0.6711183000006713;2506
217;0.6730545999998867;2506
218;0.6749873999997362;2506
219;0.6770013000004838;2505
220;0.6789740000003803;2504
221;0.6810973999999987;2504
222;0.6831287000004522;2504
223;0.6853544000005058;2503
224;0.6891183999996429;2502
225;0.6910656000000017;2502
226;0.6931182000007539;2502
227;0.6949431000011828;2501
228;0.6969903999997769;2501
229;0.6989623999998003;2500
230;0.7010203000008914;2500
231;0.7029405000012048;2499
232;0.7051119999996445;2499
233;0.7071163000000524;2499
234;0.7090841999997792;2498
235;0.7110451000007743;2497
236;0.7129614000004949;2497
237;0.7149518000005628;2497
238;0.7170457000011083;2496
239;0.7190468000007968;2495
240;0.7220926999998483;2495
241;0.7241267999997945;2494
242;0.7260968999999022;2494
243;0.7281314000010752;2493
244;0.7299734000007447;2493
245;0.7319442999996681;2493
246;0.7340323000007629;2492
247;0.7362486000001809;2492
248;0.739217300000746;2491
249;0.7409843999994337;2490
250;0.743089499999769;2489
251;0.7449804000007134;2488
252;0.7469161999997596;2488
253;0.7489144000010128;2488
254;0.7510509000003367;2487
255;0.7533889000005729;2487
256;0.7561650999996345;2486
257;0.7591444999998203;2486
258;0.7609733000008418;2485
259;0.7630619000010483;2484
260;0.7649466000002576;2484
261;0.7669753000009223;2483
262;0.7692898000004789;2482
263;0.7720838000004733;2482
264;0.7750035000008211;2481
265;0.777023000000554;2480
266;0.7789869000007457;2480
267;0.7810475999995106;2479
268;0.7829478000003292;2479
269;0.7850830000006681;2478
270;0.7881058000002668;2478
271;0.7901129000001674;2477
272;0.7920647000009922;2477
273;0.7940011999999115;2476
274;0.7959573999996792;2475
275;0.7980010999999649;2475
276;0.7999617000004946;2474
277;0.802180300001055;2474
278;0.805195900000399;2473
279;0.8070700999996916;2472
280;0.8090116000003036;2472
281;0.8109791000006226;2472
282;0.8130266000007396;2471
283;0.8150390999999217;2471
284;0.8169467000006989;2471
285;0.8192223999994894;2470
286;0.8220472000011796;2469
287;0.8239907000006497;2468
288;0.8259964999997464;2468
289;0.8279407000009087;2467
290;0.8299392999997508;2466
291;0.8319835000002058;2466
292;0.833993800000826;2465
293;0.8362615000005462;2465
294;0.8391649000004691;2464
295;0.8411114000009547;2463
296;0.8429794000003312;2462
297;0.8449037000009412;2462
298;0.8469177999995736;2462
299;0.8489611000004516;2462
300;0.851109200000792;2461
301;0.8532066000007035;2460
302;0.8561663000000408;2460
303;0.8580813000007765;2459
304;0.8599616999999853;2458
305;0.8619158000001335;2457
306;0.8639158999994834;2457
307;0.8658998999999312;2456
308;0.8681980000001204;2456
309;0.8712914999996428;2455
310;0.8741463999995176;2455
311;0.8761494999998831;2453
312;0.8781003000003693;2453
313;0.880012200001147;2452
314;0.8820183000007091;2452
315;0.8839951999998448;2451
316;0.8871837000006053;2450
317;0.8900869999997667;2449
318;0.8920586000003823;2448
319;0.8940566000001127;2448
320;0.8959580999999162;2448
321;0.8980981000004249;2447
322;0.8999591000010696;2447
323;0.9023975000000064;2446
324;0.9051992000004248;2446
325;0.9069491999998718;2445
326;0.9089287999995577;2444
327;0.9109602999997151;2444
328;0.9129818000001251;2443
329;0.9149692000009964;2443
330;0.9169581000005564;2442
331;0.9189846000008401;2441
332;0.9212021000003006;2441
333;0.9230686000009882;2440
334;0.9250486000000819;2439
335;0.9270101000001887;2439
336;0.9289827000011428;2438
337;0.9310000999994372;2438
338;0.933512100000371;2437
339;0.9360739000003377;2436
340;0.9390569000006508;2435
341;0.9409539999996923;2434
342;0.9430258000011236;2434
343;0.9449322000000393;2433
344;0.9470113000006677;2432
345;0.948948900000687;2432
346;0.9509909999997035;2432
347;0.9529404000004433;2431
348;0.9549201999998331;2431
349;0.9569752000006702;2430
350;0.9589187000001402;2429
351;0.960966800001188;2429
352;0.962943800001085;2428
353;0.9649241999995866;2428
354;0.9670478999996703;2427
355;0.9690109000002849;2426
356;0.9710240000003978;2426
357;0.9730207000011433;2425
358;0.9749893000007432;2425
359;0.9770595000009052;2424
360;0.9790926999994554;2424
361;0.9809956999997667;2423
362;0.9830796000005648;2422
363;0.9849930000000313;2422
364;0.9870155999997223;2421
365;0.9889985000008892;2420
366;0.9909308000005694;2420
367;0.9929401999997935;2419
368;0.9950026999995316;2418
369;0.9971270999994886;2417
370;0.9989466999995784;2416
371;1.0010099000010086;2416
372;1.0030160000005708;2415
373;1.0050138999995397;2415
374;1.0070623000010528;2414
375;1.0090785000011238;2414
376;1.0109902000003785;2414
377;1.0129759999999806;2413
378;1.015019399999801;2412
379;1.0170563000010588;2411
380;1.0189988000001904;2410
381;1.021026800000982;2410
382;1.0229782999995223;2409
383;1.0249789000008604;2409
384;1.0270925000004354;2408
385;1.0291107000011834;2407
386;1.031014000000141;2407
387;1.0330804000004719;2406
388;1.0349366000009468;2405
389;1.0370531999997183;2405
390;1.0389589000005799;2404
391;1.041009300000951;2404
392;1.04307400000107;2403
393;1.044944499999474;2402
394;1.0470303000001877;2402
395;1.0490311000012298;2402
396;1.0510371000000305;2401
397;1.0530849000006128;2400
398;1.0550014000000374;2400
399;1.056980700001077;2399
400;1.0590585000009014;2399
401;1.0611356000008527;2399
402;1.0629902000000584;2398
403;1.0649579000000813;2398
404;1.0669429999998101;2397
405;1.0690002000010281;2396
406;1.070987299999615;2396
407;1.0730089000007865;2395
408;1.0750074999996286;2395
409;1.0770616000008886;2394
410;1.079018399999768;2393
411;1.0810316999995848;2393
412;1.0831426000004285;2392
413;1.0861303000001499;2391
414;1.0880990999994538;2391
415;1.0900959000009607;2391
416;1.0920918000010715;2390
417;1.0939909000007901;2390
418;1.0960508999996819;2389
419;1.097943500000838;2389
420;1.0999037000001408;2389
421;1.1020105999996304;2388
422;1.105010900000707;2388
423;1.107083299999431;2387
424;1.1091249000000971;2386
425;1.1110958000008395;2386
426;1.1129596999999194;2385
427;1.1150613999998313;2384
428;1.1169895000002725;2383
429;1.1191208000000188;2383
430;1.1210435000011785;2382
431;1.1229700000003504;2381
432;1.1249095000002853;2381
433;1.1269204000000173;2381
434;1.1289902000007714;2380
435;1.131022600000506;2380
436;1.1330698000001576;2379
437;1.1350602000002254;2378
438;1.1369682000004104;2377
439;1.138908299999457;2377
440;1.1409294000004593;2377
441;1.1429514000010386;2376
442;1.1449606999995012;2375
443;1.146921100000327;2375
444;1.148887499999546;2375
445;1.1510116000008566;2374
446;1.1530674000005092;2373
447;1.1549993000007817;2372
448;1.1570585000008577;2372
449;1.1592046999994636;2372
450;1.1609521999998833;2371
451;1.163016399999833;2371
452;1.1649596999995993;2370
453;1.166966599999796;2369
454;1.169024000000718;2369
455;1.1709661000004417;2368
456;1.172965199999453;2368
457;1.1750332999999955;2367
458;1.1769585000001825;2366
459;1.1789569000011397;2365
460;1.1809759000007034;2365
461;1.1829791000000114;2364
462;1.1850047999996605;2364
463;1.1869901999998547;2363
464;1.188988400001108;2363
465;1.190993800000797;2363
466;1.1929551000011998;2362
467;1.1949580000000424;2362
468;1.1969721000004938;2361
469;1.1989768000003096;2361
470;1.2010205000005953;2360
471;1.2030348000007507;2360
472;1.204957400001149;2359
473;1.2069597000008798;2358
474;1.2089393000005657;2357
475;1.2109608999999182;2357
476;1.2129786999994394;2357
477;1.2159927000011521;2356
478;1.2180829999997513;2355
479;1.2199684999995952;2355
480;1.2219431000012264;2355
481;1.2239353000004485;2354
482;1.2259706000004371;2354
483;1.2279517000006308;2354
484;1.2299617000007856;2353
485;1.2319922000006045;2352
486;1.2341952999995556;2352
487;1.23594249999951;2351
488;1.2380057999998826;2350
489;1.2399836000004143;2350
490;1.2419654999994236;2349
491;1.2440421000010247;2349
492;1.2460157999994408;2348
493;1.248004299999593;2348
494;1.2500416000002588;2347
495;1.2520404000006238;2347
496;1.253972900000008;2346
497;1.2559650000002875;2346
498;1.2579951000006986;2345
499;1.2599601000001712;2345
500;1.2619771999998193;2344
501;1.263955200000055;2344
502;1.2659564000005048;2343
503;1.2680301000000327;2343
504;1.269983800000773;2342
505;1.2719529000005423;2342
506;1.2739638000002742;2341
507;1.2759838000001764;2341
508;1.2779504999998608;2340
509;1.2799512000001414;2340
510;1.2819595000000845;2340
511;1.283978900000875;2339
512;1.28602950000095;2339
513;1.2880179000003409;2339
514;1.290061699999569;2338
515;1.2920145999996748;2337
516;1.2940340000004653;2337
517;1.2960039000008692;2336
518;1.2980213000009826;2336
519;1.3000372000005882;2335
520;1.3019858000006934;2335
521;1.303958300000886;2334
522;1.3059936999998172;2334
523;1.307952799999839;2333
524;1.3099777000006725;2333
525;1.312146300000677;2333
526;1.3139927000011085;2333
527;1.3161780000009458;2332
528;1.3182452000000922;2332
529;1.3211798000011186;2332
530;1.3231496999997034;2331
531;1.3249627000004693;2330
532;1.32799630000045;2330
533;1.330005699999674;2329
534;1.3320115000005899;2329
535;1.3342236999997112;2328
536;1.3360040999996272;2328
537;1.338313800000833;2328
538;1.340995099999418;2328
539;1.3431282000001374;2327
540;1.3450819000008778;2327
541;1.3469810000005964;2326
542;1.3489664000007906;2326
543;1.3512669000010646;2326
544;1.3546120999999403;2325
545;1.3570133000011992;2324
546;1.358929199999693;2324
547;1.3609551999998075;2323
548;1.3629472000011447;2323
549;1.364981099999568;2323
550;1.3670149999998102;2322
551;1.3692284999997355;2322
552;1.3709295000007842;2321
553;1.3729473000003054;2321
554;1.3749711000000389;2321
555;1.3769451000007393;2321
556;1.3789520999998786;2320
557;1.3809383000007074;2320
558;1.3829605000009906;2320
559;1.3852043000006233;2319
560;1.386913000000277;2318
561;1.388920400000643;2318
562;1.3911112999994657;2318
563;1.3929502000009961;2318
564;1.3949410000004718;2317
565;1.3969367999998212;2317
566;1.398912399999972;2317
567;1.4010132000003068;2316
568;1.402946800000791;2316
569;1.4049988999995549;2315
570;1.4070566000009421;2315
571;1.4090102999998635;2315
572;1.4110235999996803;2314
573;1.412958000000799;2314
574;1.4150136999996903;2314
575;1.4170886000010796;2313
576;1.4189876000000368;2313
577;1.421007400000235;2313
578;1.4229611000009754;2313
579;1.4249601000010443;2313
580;1.4269810000005236;2313
581;1.4289253000006283;2312
582;1.4309317000006558;2312
583;1.4329293000009784;2312
584;1.435123700000986;2312
585;1.4369638999996823;2312
586;1.4389350000001286;2311
587;1.4409959000004164;2311
588;1.4429240000008576;2310
589;1.4449401000001671;2310
590;1.447006500000498;2310
591;1.449076299999433;2310
592;1.4509868000004644;2310
593;1.4529867000001104;2310
594;1.455394399999932;2309
595;1.4580119000002014;2309
596;1.459982599999421;2309
597;1.462075299999924;2309
598;1.4640899000005447;2309
599;1.4661541000004945;2309
600;1.4680010000010952;2309
601;1.470621000000392;2309
602;1.4730393000008917;2309
603;1.475019200001043;2308
604;1.477034300000014;2308
605;1.4790878000003431;2308
606;1.4809337000006053;2308
607;1.4830185000009806;2308
608;1.4850653000012244;2308
609;1.487585000000763;2308
610;1.490060199999789;2308
611;1.492028399999981;2308
612;1.494051200001195;2307
613;1.4959670000007463;2307
614;1.4979674000005616;2307
615;1.5000614000000496;2307
616;1.5020839000007982;2307
617;1.5053281000000425;2307
618;1.5070252000004984;2307
619;1.510162800001126;2307
620;1.5119814000008773;2307
621;1.5139522999998007;2307
622;1.5161119000003964;2307
623;1.517969800001083;2307
624;1.520533599999908;2307
625;1.5233036999998149;2307
626;1.524972400000479;2306
627;1.5269334000004164;2306
628;1.528957000000446;2306
629;1.5309197000005952;2306
630;1.5329928999999538;2306
631;1.5349593000009918;2306
632;1.5374604999997246;2306
633;1.540121400001226;2306
634;1.5420209000003524;2306
635;1.5439814000001206;2306
636;1.5460223000009137;2306
637;1.5479787000003853;2306
638;1.550081000001228;2306
639;1.5519858999996359;2306
640;1.5545213000004878;2306
641;1.5570896999997785;2306
642;1.5589553999998316;2306
643;1.5609497000004922;2306
644;1.5630567000007431;2306
645;1.5649775000001682;2306
646;1.5669756999996025;2306
647;1.5689576000004308;2306
648;1.5721807999998418;2306
649;1.57396080000035;2306
650;1.5759663999997429;2306
651;1.5779980999996042;2306
652;1.579993999999715;2306
653;1.5819392000012158;2306
654;1.5840060999998968;2306
655;1.5863939999999275;2306
656;1.5891162999996595;2306
657;1.591019100000267;2307
658;1.5930179999995744;2307
659;1.5950690000008763;2307
660;1.5969497999994928;2307
661;1.598961200001213;2307
662;1.6009887000000163;2307
663;1.6044820999995864;2308
664;1.6070020999995904;2308
665;1.6089616999997816;2308
666;1.610969400000613;2309
667;1.612983400000303;2309
668;1.6149763000012172;2309
669;1.617127100000289;2309
670;1.618997200001104;2309
671;1.621417800000927;2309
672;1.6240627000006498;2309
673;1.6259850000005827;2309
674;1.6280409999999392;2309
675;1.6300188999994134;2309
676;1.6321573000004719;2309
677;1.634049000000232;2309
678;1.6360684000010224;2310
679;1.6392706000006;2310
680;1.640970100001141;2310
681;1.64297550000083;2310
682;1.6450273000009474;2310
683;1.6471118000008573;2310
684;1.649205300000176;2310
685;1.6521556999996392;2310
686;1.6556209000009403;2310
687;1.6580773000005138;2311
688;1.6611200000006647;2311
689;1.6632055999998556;2311
690;1.6650227000009181;2311
691;1.66708909999943;2311
692;1.6694244000009348;2312
693;1.6731092000009085;2312
694;1.675141400000939;2312
695;1.6771661000002496;2312
696;1.6791468000010354;2312
697;1.682028100000025;2312
698;1.6844484000012017;2312
699;1.6874222999995254;2312
700;1.690041600000768;2312
701;1.6920143000006647;2313
702;1.69399710000107;2313
703;1.6965742000011232;2313
704;1.699061499999516;2314
705;1.7014175000003888;2314
706;1.7040350000006583;2314
707;1.706008600000132;2314
708;1.708021500000541;2314
709;1.7100244000012026;2315
710;1.7119796000006318;2315
711;1.7140478000001167;2316
712;1.7160466999994242;2316
713;1.7181227000000945;2316
714;1.7200895999994827;2316
715;1.7220694000006915;2317
716;1.7240252999999939;2317
717;1.726020800000697;2317
718;1.7280755000010686;2317
