;time;amplitude
0;0.005205400000704685;2379
1;0.010207299999819952;2379
2;0.015240700000504148;2379
3;0.019654300000183866;2379
4;0.0237011999997776;2379
5;0.028017000000545522;2379
6;0.032640200000969344;2380
7;0.0367076000002271;2379
8;0.04225190000033763;2379
9;0.04766860000017914;2379
10;0.05149100000016915;2380
11;0.05590720000145666;2380
12;0.06039700000110315;2381
13;0.0642615000015212;2381
14;0.06849580000016431;2381
15;0.07160840000142343;2381
16;0.07563040000059118;2382
17;0.07968390000132786;2382
18;0.08367630000066129;2383
19;0.08618829999977606;2383
20;0.08951119999983348;2383
21;0.09357060000002093;2384
22;0.09757499999977881;2384
23;0.10146490000079211;2384
24;0.10465939999994589;2385
25;0.1087124000005133;2386
26;0.1127068000005238;2386
27;0.11670880000019679;2387
28;0.12067999999999302;2387
29;0.12471220000043104;2387
30;0.12866460000077495;2388
31;0.1326585000006162;2388
32;0.13623720000032336;2388
33;0.14066930000080902;2389
34;0.1446369000004779;2390
35;0.14861110000128974;2390
36;0.15217130000019097;2391
37;0.1566714000000502;2392
38;0.16063800000119954;2392
39;0.16430990000117163;2393
40;0.16767090000030294;2393
41;0.17177970000011555;2394
42;0.1756150000001071;2395
43;0.1796369000003324;2396
44;0.18363550000140094;2396
45;0.18763940000098955;2396
46;0.19164110000019718;2397
47;0.19553989999985788;2398
48;0.1996753000003082;2399
49;0.2035873000004358;2400
50;0.20765860000028624;2401
51;0.21124480000071344;2402
52;0.21461790000103065;2402
53;0.21866620000037074;2403
54;0.22268070000063744;2404
55;0.22665480000068783;2405
56;0.23065330000099493;2406
57;0.2346627000006265;2407
58;0.23870390000047337;2408
59;0.24264660000153526;2409
60;0.24558790000082809;2410
61;0.24957760000143026;2410
62;0.2536005000001751;2411
63;0.25766269999985525;2412
64;0.26106760000038776;2413
65;0.26410130000112986;2414
66;0.26708510000025854;2414
67;0.27056609999999637;2415
68;0.27426370000102906;2416
69;0.27752370000052906;2417
70;0.2816118999999162;2417
71;0.28517290000127105;2418
72;0.2885333000012906;2419
73;0.29152590000012424;2420
74;0.29434500000024855;2420
75;0.29734150000149384;2421
76;0.3003423999998631;2422
77;0.30337560000043595;2423
78;0.3061124000014388;2424
79;0.30912420000095153;2425
80;0.3121318000012252;2425
81;0.3153109000013501;2426
82;0.31831880000027013;2427
83;0.32108440000047267;2427
84;0.32436090000010154;2428
85;0.3273207000002003;2429
86;0.33031530000153;2429
87;0.3333031000001938;2430
88;0.3369727999997849;2430
89;0.34031380000124045;2432
90;0.34331960000054096;2432
91;0.3463115000013204;2433
92;0.34912310000072466;2434
93;0.35244170000078157;2435
94;0.35654000000067754;2435
95;0.36051530000077037;2437
96;0.3645468000013352;2438
97;0.36867890000030457;2439
98;0.37253490000148304;2440
99;0.3770245000014256;2441
100;0.380496800000401;2442
101;0.3848054999998567;2442
102;0.3885889000011957;2443
103;0.39287420000073325;2444
104;0.3967024000012316;2445
105;0.40032650000102876;2447
106;0.40475100000003295;2448
107;0.40871100000003935;2449
108;0.41275839999980235;2450
109;0.41614320000007865;2451
110;0.4207014000003255;2453
111;0.4246498000011343;2454
112;0.4287034999997559;2454
113;0.43217210000148043;2455
114;0.43516120000094816;2456
115;0.43845560000045225;2456
116;0.4427021000010427;2457
117;0.4461996999998519;2458
118;0.44925420000072336;2459
119;0.4520578999999998;2459
120;0.45670500000051106;2460
121;0.46063000000140164;2461
122;0.4646628000009514;2462
123;0.46827680000023975;2463
124;0.4716844000013225;2463
125;0.47560620000149356;2464
126;0.479619100000491;2465
127;0.48372720000043046;2466
128;0.4876367000015307;2466
129;0.4916157000006933;2466
130;0.4956179000000702;2467
131;0.49917920000007143;2467
132;0.5021289000014804;2468
133;0.506628000001001;2469
134;0.5105799000011757;2470
135;0.5146217000001343;2471
136;0.5185149000008096;2472
137;0.5226297000008344;2473
138;0.5266212000005908;2473
139;0.5305771000003006;2474
140;0.5346053000012034;2474
141;0.5375731000003725;2474
142;0.5416291000001365;2475
143;0.5456133000006957;2475
144;0.5485617000013008;2476
145;0.5521528000008402;2476
146;0.5555660999998508;2477
147;0.5596138000000792;2477
148;0.5636214000005566;2478
149;0.5676336000014999;2479
150;0.570554699999775;2480
151;0.5746307999997953;2480
152;0.5781375000005937;2481
153;0.5815762000001996;2481
154;0.585061300000234;2481
155;0.5883637000006274;2481
156;0.5923534000012296;2481
157;0.5952558999997564;2481
158;0.5993366000002425;2481
159;0.6021479999999428;2481
160;0.6053552000012132;2482
161;0.6084171000002243;2482
162;0.6114711000009265;2483
163;0.6143564000012702;2483
164;0.6173842000007426;2483
165;0.6203507999998692;2483
166;0.6229670000011538;2483
167;0.6265051999998832;2483
168;0.6294151000001875;2483
169;0.6324065999997401;2483
170;0.6364125000000058;2483
171;0.6394228000008297;2483
172;0.6424208000007638;2482
173;0.6452000000008411;2482
174;0.6482481000002736;2482
175;0.6513825000001816;2483
176;0.6542062000007718;2483
177;0.6572108000000298;2483
178;0.6601808000013989;2482
179;0.663209000000279;2481
180;0.6662183000007644;2482
181;0.6691332000009425;2481
182;0.6722122000010131;2481
183;0.6752056000004814;2481
184;0.6782172000002902;2481
185;0.6812140000001818;2481
186;0.6842095000010886;2480
187;0.6872156000008545;2480
188;0.6901842000006582;2480
189;0.693203300001187;2480
190;0.6962117000002763;2480
191;0.6991936000013084;2479
192;0.7020212000006723;2479
193;0.7052151000007143;2478
194;0.7082107000005635;2478
195;0.7112076000012166;2478
196;0.7140336000011303;2478
197;0.7172150000005786;2478
198;0.7201915000005101;2478
199;0.7231830000000627;2477
200;0.726217400000678;2477
201;0.7291991000001872;2476
202;0.7321871000003739;2476
203;0.7350127000008797;2477
204;0.7381827000008343;2476
205;0.7411835000002611;2476
206;0.7441752000013366;2476
207;0.7471999000008509;2475
208;0.7501914000004035;2474
209;0.753194099999746;2474
210;0.7561894000009488;2474
211;0.7592949000008957;2473
212;0.7620416000008845;2473
213;0.7652902000008908;2472
214;0.768161300000429;2472
215;0.7712917999997444;2472
216;0.7743050000008225;2472
217;0.7770734000005177;2471
218;0.7801513000013074;2471
219;0.783300799999779;2470
220;0.7862645000004704;2469
221;0.7892898000009154;2469
222;0.7922711000010167;2468
223;0.7952960000002349;2468
224;0.7982917000008456;2467
225;0.8013009000005695;2466
226;0.8042612000008376;2466
227;0.8072946000011143;2465
228;0.8102976999998646;2465
229;0.8132909000014479;2464
230;0.8162969000004523;2464
231;0.8192878000008932;2463
232;0.8222956999998132;2463
233;0.8252320999999938;2463
234;0.8282864000011614;2463
235;0.8313011000009283;2462
236;0.8342638000012812;2462
237;0.8372967000013887;2462
238;0.8402986000000965;2461
239;0.84327200000007;2461
240;0.8462999000003038;2460
241;0.8492935000012949;2459
242;0.8520533999999316;2459
243;0.8550575999997818;2458
244;0.858300900001268;2457
245;0.8612912000007782;2457
246;0.864259600000878;2457
247;0.8673116999998456;2456
248;0.8702521000013803;2456
249;0.8732955000014044;2455
250;0.8762867000004917;2455
251;0.8792959000002156;2454
252;0.8822987000003195;2453
253;0.8850437000000966;2453
254;0.888296300001457;2452
255;0.8913010000014765;2451
256;0.8942918000011559;2450
257;0.8973012000005838;2449
258;0.9003005000013218;2448
259;0.9033042999999452;2447
260;0.9063091000007262;2446
261;0.9093023000004905;2445
262;0.9122975999998744;2444
263;0.9152862000009918;2444
264;0.9181051000014122;2443
265;0.9213175000004412;2442
266;0.9240167000007204;2441
267;0.9272963000003074;2441
268;0.9302989000007074;2440
269;0.9331954000008409;2439
270;0.9363364000000729;2438
271;0.9392681000008452;2437
272;0.94225809999989;2436
273;0.9452068000009604;2436
274;0.9482709000003524;2435
275;0.9512747000007948;2434
276;0.9543233000003966;2433
277;0.9572906000012154;2433
278;0.9602629000000888;2432
279;0.9632890000011685;2431
280;0.9662981000001309;2431
281;0.9693026000004465;2430
282;0.9722928000010143;2429
283;0.975295800000822;2428
284;0.9782485000014276;2427
285;0.9813038000011147;2427
286;0.9840567000010196;2426
287;0.986314300000231;2426
288;0.9892902999999933;2425
289;0.9922994000007748;2424
290;0.9952883000005386;2424
291;0.9982378000004246;2423
292;1.0012966000012966;2422
293;1.0042932000014844;2421
294;1.0073111000001518;2421
295;1.0102983000015229;2420
296;1.0132893999998487;2419
297;1.0163035000005038;2419
298;1.0192748000008578;2417
299;1.0223201000007975;2416
300;1.0252930000006018;2416
301;1.0282502000009117;2415
302;1.0312977000012324;2415
303;1.0343167000009998;2414
304;1.0372906000011426;2414
305;1.0402736000014556;2413
306;1.0432900000014342;2413
307;1.0460306000004493;2412
308;1.0493254000011802;2412
309;1.0520535000014206;2410
310;1.0552961000012147;2410
311;1.0583192000012787;2409
312;1.0613164000005781;2408
313;1.0642948000004253;2407
314;1.0673252000015054;2407
315;1.0703271000002132;2406
316;1.073286900000312;2405
317;1.0763373999998294;2404
318;1.0793173000001843;2403
319;1.0823192000007111;2403
320;1.0850630000004458;2402
321;1.0883205000009184;2402
322;1.0913244000003033;2401
323;1.0941527000013593;2400
324;1.0972755000002508;2400
325;1.10029250000116;2400
326;1.1032885000004171;2399
327;1.106298800001241;2398
328;1.1090754000015295;2397
329;1.112113600000157;2397
330;1.1152787999999418;2396
331;1.1180077999997593;2396
332;1.1213060000009136;2395
333;1.1242081000000326;2395
334;1.1276572000006126;2395
335;1.1316552000007505;2394
336;1.1351449000012508;2394
337;1.138355600000068;2393
338;1.141369200000554;2392
339;1.1443484999999782;2392
340;1.1473476000010123;2391
341;1.1503460000003543;2391
342;1.1535558000014134;2391
343;1.157588800000667;2390
344;1.1616338000003452;2389
345;1.1655695000008564;2389
346;1.1692097000013746;2388
347;1.1725194999999076;2387
348;1.1766189000009035;2387
349;1.180631600000197;2386
350;1.184214000000793;2385
351;1.1875550000004296;2385
352;1.191597200000615;2384
353;1.1955900000011752;2383
354;1.1996047000011458;2382
355;1.2020210999999108;2381
356;1.2055872000000818;2381
357;1.2095977000008133;2381
358;1.2135918000003585;2380
359;1.2176302000007126;2380
360;1.22052690000055;2380
361;1.2245641999998043;2380
362;1.228456200000437;2380
363;1.232551600000079;2379
364;1.2366306000003533;2379
365;1.240641800000958;2379
366;1.2446601999999984;2379
367;1.248415500000192;2379
368;1.2516838000010466;2379
369;1.2555858000014268;2379
370;1.259593800001312;2379
371;1.2631058000006306;2379
372;1.2665653000003658;2379
373;1.2705839000009291;2380
374;1.2746168000012403;2380
375;1.2783971999997448;2380
376;1.28262580000046;2379
377;1.2850685000012163;2379
378;1.2885556000001088;2379
379;1.2926094000013109;2379
380;1.2965930999998818;2379
381;1.3006198000002769;2379
382;1.3035491000009642;2380
383;1.307615200001237;2380
384;1.310957800000324;2379
385;1.314078100000188;2379
386;1.3175741000013659;2379
387;1.320552500001213;2379
388;1.3246753000003082;2380
389;1.32843640000101;2380
390;1.331345100001272;2381
391;1.3351868000008835;2381
392;1.338427300001058;2382
393;1.3411065000000235;2381
394;1.3444589999999152;2381
395;1.3474046000010276;2381
396;1.3504100999998627;2382
397;1.353165500000614;2382
398;1.3561528000009275;2382
399;1.3591771999999764;2383
400;1.362226200000805;2384
401;1.3651851000013266;2384
402;1.3679893000007723;2384
403;1.3711911000009422;2384
404;1.3741895000002842;2385
405;1.3771869000011066;2385
406;1.3801935999999841;2385
407;1.3831980000013573;2386
408;1.3861911000003602;2386
409;1.3890535999998974;2387
410;1.3920683000014833;2387
411;1.3950469000010344;2388
412;1.3980377000007138;2388
413;1.4014560000014171;2388
414;1.4043840000013006;2388
415;1.4073843000005581;2388
416;1.410283500001242;2388
417;1.4132920000010927;2389
418;1.4162943000010273;2390
419;1.419134400000985;2391
420;1.4222208000010141;2391
421;1.425198700000692;2392
422;1.4282061000012618;2392
423;1.4312078000002657;2393
424;1.4342080000005808;2393
425;1.436160100000052;2393
426;1.4392201999999088;2393
427;1.4421873000010237;2393
428;1.4449829000004684;2394
429;1.44697830000041;2395
430;1.4501078000012058;2396
431;1.4531082000012248;2396
432;1.4563150000012683;2397
433;1.459358100000827;2397
434;1.4623331000002509;2397
435;1.4654083000004903;2398
436;1.4691259000010177;2398
437;1.4722830999999132;2399
438;1.475276600000143;2399
439;1.4783456000004662;2400
440;1.4813622000001487;2401
441;1.4843797000012273;2402
442;1.4873351000005641;2403
443;1.4903277000012167;2403
444;1.493328800001109;2404
445;1.496344000001045;2404
446;1.4990453000009438;2405
447;1.5022052000003896;2405
448;1.5053261000011844;2406
449;1.5083289000012883;2407
450;1.5113326999999117;2408
451;1.5145198999998684;2409
452;1.5172957000013412;2409
453;1.5203146000003471;2410
454;1.523294700000406;2410
455;1.5263255999998364;2411
456;1.5293201000004046;2412
457;1.5322941000013088;2413
458;1.534997900000235;2413
459;1.5383149000008416;2414
460;1.5413144000012835;2415
461;1.5443295000004582;2416
462;1.5473159000011947;2416
463;1.5503122999998595;2417
464;1.5533387000014045;2418
465;1.5563201000004483;2419
466;1.559305900000254;2420
467;1.5621731000010186;2420
468;1.5653200000015204;2421
469;1.5679486999997607;2422
470;1.5713317000008828;2422
471;1.574311200000011;2423
472;1.577291100000366;2424
473;1.5803246000014042;2425
474;1.5833147000012104;2425
475;1.5863151000012294;2425
476;1.5893180000002758;2426
477;1.5923249000006763;2427
478;1.5953179000007367;2427
479;1.5983114999999088;2428
480;1.6012902000002214;2429
481;1.6043171000001166;2430
482;1.607313600001362;2431
483;1.6102983000000677;2432
484;1.6133117000008497;2433
485;1.6163087000004452;2433
486;1.6193184000003384;2434
487;1.6223141999998916;2435
488;1.6253262000009272;2435
489;1.6283233000012842;2437
490;1.631316599999991;2437
491;1.634295200001361;2438
492;1.6373082000009163;2439
493;1.6400991000009526;2439
494;1.6431880000000092;2440
495;1.6463108000007196;2441
496;1.649321000000782;2442
497;1.6519275000009657;2442
498;1.6543214000012085;2443
499;1.6573244000010163;2444
500;1.6601704000004247;2444
501;1.6631760000000213;2445
502;1.666168200001266;2446
503;1.669226100000742;2446
504;1.6721671000013885;2446
505;1.675132600001234;2447
506;1.678148400000282;2447
507;1.6811655000001338;2449
508;1.6840248000007705;2450
509;1.687314000000697;2450
510;1.69032850000076;2451
511;1.6933096000011574;2451
512;1.6963175000000774;2452
513;1.6993254000008164;2452
514;1.7023263000010047;2453
515;1.7053124000012758;2453
516;1.7083228000010422;2454
517;1.7113147000000026;2455
518;1.7143126999999367;2455
519;1.7170151000009355;2456
520;1.7203332000008231;2457
521;1.7233114999999088;2458
522;1.7260216000013315;2458
523;1.729319600000963;2459
524;1.7322932000006404;2460
525;1.7350490000007994;2461
526;1.7383229000006395;2462
527;1.741310200000953;2463
528;1.7443165000004228;2463
529;1.7473135000000184;2464
530;1.750321299999996;2465
531;1.7533174000000145;2466
532;1.7563344999998662;2466
533;1.75931810000111;2466
534;1.762315200001467;2467
535;1.7653138000005129;2468
536;1.7679653000013786;2468
537;1.7713168000009318;2469
538;1.7743121000003157;2470
539;1.7773217000012664;2471
540;1.7800396000002365;2471
541;1.7833146000011766;2472
542;1.7863200000010693;2472
543;1.7893154000012146;2472
544;1.7923146000011911;2473
545;1.795103399999789;2473
546;1.7982968000014807;2474
547;1.8012542000014946;2474
548;1.8043345000005502;2474
549;1.807313500001328;2475
550;1.8103134000011778;2476
551;1.8133223000004364;2476
552;1.8163187999998627;2476
553;1.819310700000642;2477
554;1.8223118000005343;2477
555;1.8253303000001324;2477
556;1.8281868000012764;2478
557;1.8313121999999566;2478
558;1.8342876000006072;2478
559;1.8373179000009259;2479
560;1.8403099000006478;2479
561;1.8430588000010175;2479
562;1.8463461999999708;2479
563;1.8493126000012126;2480
564;1.8523211000010633;2480
565;1.8553160000010394;2480
566;1.8580417000011948;2480
567;1.8613408000001073;2481
568;1.864329900001394;2481
569;1.867313100001411;2481
570;1.8703119000001607;2481
571;1.8733152000004338;2481
572;1.8763156000004528;2481
573;1.8793122000006406;2481
574;1.8823164000004908;2481
575;1.8849661000003834;2481
576;1.8883150000001478;2481
577;1.8913458000006358;2481
578;1.8943140000010317;2481
579;1.8973213999997824;2481
580;1.900319700000182;2481
581;1.9033521000001201;2481
582;1.9071792000013374;2481
583;1.910321000001204;2481
584;1.9133116000011796;2481
585;1.9163201000010304;2481
586;1.9193264000005001;2481
587;1.9223211000007723;2481
588;1.9253214000000298;2482
589;1.9283175000000483;2481
590;1.9313113000007434;2481
591;1.9342930000002525;2481
592;1.9370453999999881;2480
593;1.9403553000011016;2480
594;1.9433368999998493;2480
595;1.9463334000010946;2480
596;1.9493302999999287;2479
597;1.9521350000013626;2479
598;1.9553614000014932;2480
599;1.9583312000013393;2480
600;1.9612799000005907;2479
601;1.9642996000002313;2479
602;1.967230300000665;2478
603;1.9703036999999313;2478
604;1.9733023999997386;2478
605;1.9763051000009;2478
606;1.9793016000003263;2479
607;1.982304600000134;2478
608;1.9850376000013057;2478
609;1.9882952000007208;2477
610;1.9912947000011627;2477
611;1.9943015999997442;2477
612;1.9972901000001002;2476
613;2.0003236000011384;2476
614;2.0033254000009038;2476
615;2.0062931000011304;2477
616;2.009296300000642;2476
617;2.0123285000008764;2476
618;2.0150442000012845;2476
619;2.018054900001516;2476
620;2.0212951000012254;2476
621;2.0243248000006133;2476
622;2.027290100000755;2476
623;2.030300200000056;2475
624;2.0332988999998634;2475
625;2.0362951000006433;2475
626;2.039302700000917;2474
627;2.042294700000639;2474
628;2.045291600001292;2473
629;2.048311200000171;2472
630;2.051147600001059;2472
631;2.054240600000412;2471
632;2.057324700001118;2471
633;2.0602935000006255;2470
634;2.0633307000007335;2470
635;2.0662943000006635;2470
636;2.069303400001445;2469
637;2.072305800000322;2468
638;2.0752971000001708;2468
639;2.078044800000498;2467
640;2.0803002000011475;2467
641;2.0832917000007;2466
642;2.086290100000042;2465
643;2.0893197000004875;2465
644;2.09230590000152;2464
645;2.0952132000002166;2463
646;2.0982030000013765;2462
647;2.1011238999999478;2462
648;2.104323100000329;2461
649;2.1073255999999674;2460
650;2.1103249000007054;2460
651;2.113293500000509;2459
652;2.116300900001079;2459
653;2.1193318000005092;2458
654;2.1223065000012866;2457
655;2.1251491000002716;2457
656;2.128320800000438;2456
657;2.131293000000369;2455
658;2.1343550000001414;2454
659;2.137299500000154;2454
660;2.1403191999997944;2453
661;2.1433286999999837;2452
662;2.1463223999999173;2452
663;2.149296700001287;2451
664;2.1523243000010552;2450
665;2.1553218999997625;2449
666;2.158325000000332;2448
667;2.1613322000011976;2448
668;2.164287499999773;2447
669;2.1673089000014443;2446
670;2.1703296000014234;2445
671;2.1731059000012465;2444
672;2.1763232000012067;2444
673;2.1793321000004653;2443
674;2.1823272000001452;2443
675;2.185055200001443;2442
676;2.188178800000969;2442
677;2.1913285000009637;2441
678;2.1943256000013207;2440
679;2.1973008000004484;2439
680;2.2003244000006816;2439
681;2.203238500000225;2438
682;2.206159600000319;2438
683;2.2091753000004246;2437
684;2.2122764000014286;2436
685;2.215437100001509;2436
686;2.2181822000002285;2435
687;2.221342500000901;2434
688;2.2243353000012576;2433
689;2.2273518000001786;2432
690;2.230306000001292;2431
691;2.23333570000068;2431
692;2.236011700000745;2430
693;2.2393232000013086;2430
694;2.2423432000014145;2428
695;2.24534660000063;2428
696;2.2483552000012423;2427
697;2.2511229000010644;2426
698;2.2543417000015324;2425
699;2.257338700001128;2424
700;2.2603353000013158;2423
701;2.2633378999998968;2423
702;2.266354200000933;2422
703;2.2693479000008665;2421
704;2.272332800001095;2420
705;2.275342400000227;2420
706;2.278340200000457;2419
707;2.2813381000014488;2418
708;2.2843655000015133;2418
709;2.2873412999997527;2417
710;2.2903385999998136;2417
711;2.293352500000765;2416
712;2.296318600001541;2416
713;2.2990915999998833;2416
714;2.302349499999764;2415
715;2.3053576000002067;2414
716;2.3083467000014934;2414
717;2.311259500000233;2413
718;2.313894300001266;2413
