;time;amplitude
0;0.004978299999493174;2404
1;0.01037940000060189;2404
2;0.015546599999652244;2405
3;0.020370199999888428;2405
4;0.025251600000046892;2406
5;0.030262399999628542;2406
6;0.035512000000380795;2406
7;0.04038990000117337;2407
8;0.045354300000326475;2408
9;0.049857300000439864;2409
10;0.053817899999557994;2409
11;0.05866009999954258;2410
12;0.06301920000078098;2410
13;0.06652539999959117;2411
14;0.07103570000072068;2411
15;0.07477560000006633;2412
16;0.07903230000010808;2412
17;0.08239900000080524;2412
18;0.0856896000004781;2413
19;0.08967430000120657;2414
20;0.0936811999999918;2414
21;0.09731420000025537;2415
22;0.10044689999995171;2415
23;0.10393570000087493;2416
24;0.10796750000008615;2417
25;0.11164559999997437;2417
26;0.1154249000010168;2418
27;0.12000040000020817;2418
28;0.12367300000005343;2419
29;0.12761789999967732;2420
30;0.13047480000022915;2421
31;0.1336410000003525;2421
32;0.13662769999973534;2422
33;0.1405945000005886;2422
34;0.14440730000023905;2423
35;0.1475919000004069;2424
36;0.15054439999948954;2424
37;0.153529700000945;2425
38;0.15663500000118802;2425
39;0.15938490000007732;2426
40;0.1626101000001654;2426
41;0.165178700000979;2427
42;0.16833410000072035;2427
43;0.17132549999951152;2428
44;0.17428339999969467;2428
45;0.1789139000011346;2428
46;0.18227670000123908;2429
47;0.185499000001073;2430
48;0.18848930000058317;2430
49;0.19150720000106958;2430
50;0.19450200000028417;2430
51;0.19749570000021777;2431
52;0.20052990000112914;2431
53;0.20352040000034322;2432
54;0.20612079999955313;2432
55;0.20839689999957045;2433
56;0.21153100000083214;2434
57;0.21456810000017867;2435
58;0.217526700000235;2435
59;0.22049610000067332;2435
60;0.22350030000052357;2436
61;0.2265294000007998;2437
62;0.22953059999963443;2437
63;0.23239009999997506;2438
64;0.2355361999998422;2438
65;0.23822160000054282;2438
66;0.24125199999980396;2439
67;0.24425739999969664;2440
68;0.24800490000052378;2440
69;0.2518782999995892;2441
70;0.25568550000025425;2441
71;0.2597476999999344;2442
72;0.2637575000007928;2443
73;0.2667338000010204;2444
74;0.2702979999994568;2445
75;0.27343110000037996;2445
76;0.27773720000004687;2446
77;0.28169379999962985;2446
78;0.28466149999985646;2446
79;0.2877289000007295;2446
80;0.2907113000001118;2447
81;0.29370080000080634;2447
82;0.2964043000010861;2448
83;0.2995713000000251;2449
84;0.30230029999984254;2449
85;0.3052927999997337;2449
86;0.3082754000006389;2449
87;0.3112997999996878;2450
88;0.3142984999994951;2450
89;0.31747160000122676;2451
90;0.32049630000074103;2452
91;0.32346940000024915;2452
92;0.326477700000396;2453
93;0.3294660000010481;2453
94;0.3323522000009689;2453
95;0.3354373000001942;2454
96;0.3384382000003825;2454
97;0.3414303000008658;2454
98;0.344477900000129;2455
99;0.34716760000083013;2455
100;0.3504579000000376;2456
101;0.35343339999963064;2456
102;0.3564313000006223;2456
103;0.3594513000007282;2457
104;0.36233660000107193;2457
105;0.36518059999980323;2457
106;0.36846220000006724;2457
107;0.37143860000105633;2457
108;0.3744231000000582;2457
109;0.37740860000121756;2458
110;0.38044340000124066;2458
111;0.38345550000121875;2459
112;0.3864398000005167;2459
113;0.38943860000108543;2459
114;0.392460500001107;2459
115;0.3963280999996641;2459
116;0.3994309000008798;2459
117;0.402457800000775;2459
118;0.40545920000113256;2459
119;0.4084565000011935;2460
120;0.41147110000019893;2460
121;0.41445999999996275;2460
122;0.41743330000099377;2460
123;0.42040840000117896;2460
124;0.42340490000060527;2460
125;0.42629350000061095;2460
126;0.4296979000009742;2461
127;0.4322310000006837;2461
128;0.4355773000006593;2461
129;0.4385314000010112;2461
130;0.44118280000111554;2461
131;0.4443522000001394;2461
132;0.4473500000003696;2461
133;0.4503055000004679;2461
134;0.4533045000007405;2460
135;0.45629790000020876;2460
136;0.4591669000001275;2460
137;0.46232080000118003;2460
138;0.46514879999995173;2460
139;0.46833090000109223;2460
140;0.47132330000022193;2460
141;0.474323500000537;2460
142;0.4773235000011482;2460
143;0.48032489999968675;2460
144;0.483335500000976;2460
145;0.4863290000012057;2459
146;0.48932630000126665;2459
147;0.492341099999976;2459
148;0.49532970000109344;2458
149;0.49814640000113286;2459
150;0.5013247999995656;2458
151;0.5041399000001547;2458
152;0.5073271000001114;2459
153;0.5103214999999182;2458
154;0.5133218999999372;2458
155;0.5162896000001638;2458
156;0.5193213000002288;2458
157;0.5223189000007551;2457
158;0.5253343000003952;2457
159;0.5283239000000322;2457
160;0.5313102000000072;2457
161;0.534338999999818;2456
162;0.5373326999997516;2456
163;0.5403217000002769;2456
164;0.5433336999994935;2455
165;0.546331999999893;2455
166;0.5493313999995735;2455
167;0.5523546000003989;2455
168;0.5553306000001612;2454
169;0.5582918000000063;2454
170;0.5612711000012496;2454
171;0.5643104999999196;2454
172;0.5673994000007951;2454
173;0.5703453000005538;2453
174;0.5733512999995583;2453
175;0.5763440000009723;2453
176;0.5796972999996797;2452
177;0.5821733000011591;2452
178;0.5854579999995622;2452
179;0.5884430000005523;2452
180;0.5914086000011594;2451
181;0.5944866000008915;2451
182;0.597171100000196;2451
183;0.5993424999996932;2451
184;0.602469999999812;2450
185;0.6054669000004651;2450
186;0.6083735000011075;2450
187;0.6114524000004167;2449
188;0.6144631000006484;2449
189;0.6174799000000348;2449
190;0.6204295000006823;2449
191;0.623430699999517;2448
192;0.6264253000008466;2448
193;0.6291890000011335;2447
194;0.6311430000005203;2447
195;0.6333457000000635;2447
196;0.6378676000003907;2446
197;0.6418403000006947;2446
198;0.6454510000003211;2445
199;0.6482694999995147;2444
200;0.6517045000000508;2444
201;0.6557697000007465;2443
202;0.6597860000001674;2443
203;0.6637540000010631;2442
204;0.6666775000012422;2441
205;0.6707602999995288;2441
206;0.6734968000000663;2440
207;0.6777096999994683;2440
208;0.6806893000011769;2439
209;0.6836973000008584;2439
210;0.6877550000008341;2438
211;0.6917069000010088;2437
212;0.695772200000647;2437
213;0.6997049000001425;2436
214;0.7037603000007948;2435
215;0.7075825000010809;2435
216;0.7117816000009043;2434
217;0.7153646999995544;2433
218;0.7197950000008859;2433
219;0.7238221999996313;2432
220;0.7277541000003112;2432
221;0.7316076000006433;2431
222;0.7347234999997454;2431
223;0.7387672000004386;2430
224;0.7427650000008725;2430
225;0.7467780000006314;2429
226;0.7493537999998807;2429
227;0.7527174000006198;2428
228;0.7563126000004559;2427
229;0.7597470000000612;2427
230;0.7625487000004796;2426
231;0.7667452999994566;2426
232;0.7695617999997921;2425
233;0.7727503999994951;2425
234;0.7755666000011843;2424
235;0.7797905999996146;2424
236;0.7837823000008939;2423
237;0.7877227000008133;2422
238;0.7904311000002053;2421
239;0.7934136000003491;2421
240;0.7964432000007946;2420
241;0.7994725000007747;2420
242;0.8021158999999898;2419
243;0.8052031000006536;2418
244;0.8082629000000452;2418
245;0.8113511000010476;2417
246;0.8143404000002192;2417
247;0.8173872000006668;2416
248;0.8203733999998803;2415
249;0.8233390000004874;2415
250;0.826325199999701;2414
251;0.8291690999994898;2414
252;0.8320402999997896;2414
253;0.8342248000008112;2413
254;0.8361358000001928;2412
255;0.838060800000676;2412
256;0.841357400000561;2412
257;0.8443609000005381;2411
258;0.8472266999997373;2410
259;0.8493837000005442;2410
260;0.8523603000012372;2409
261;0.8553689000000304;2409
262;0.8583600000001752;2409
263;0.8614212000011321;2408
264;0.8644752000000153;2408
265;0.8673892999995587;2407
266;0.8704017000000022;2407
267;0.8733934000010777;2407
268;0.8764047000004211;2406
269;0.8793807000001834;2406
270;0.8823596000001999;2405
271;0.8853455000007671;2405
272;0.88834610000049;2404
273;0.8913716000006389;2404
274;0.8943527000010363;2404
275;0.8973586000010982;2404
276;0.9002627000008943;2403
277;0.9032834999998158;2403
278;0.906386399999974;2402
279;0.9094000000004598;2402
280;0.9121390000000247;2401
281;0.9143008999999438;2402
282;0.9173835000001418;2402
283;0.9203849000004993;2401
284;0.9233755000004749;2401
285;0.9263831000007485;2401
286;0.9293494000012288;2400
287;0.9323628000001918;2399
288;0.9353516999999556;2399
289;0.9383572000006097;2399
290;0.9413703999998688;2398
291;0.9442436000008456;2397
292;0.947353600000497;2397
293;0.9503519000008964;2397
294;0.9533563000004506;2396
295;0.9563517000005959;2396
296;0.9593549000001076;2396
297;0.9623669000011432;2396
298;0.9651688000012655;2396
299;0.9683550000008836;2395
300;0.9713590999999724;2395
301;0.974353900001006;2394
302;0.9773566000003484;2394
303;0.9803564000012557;2395
304;0.9833708999994997;2395
305;0.9863617000009981;2394
306;0.9893712000011874;2394
307;0.9922877000008157;2393
308;0.9953662999996595;2393
309;0.9982079000001249;2393
310;1.0013613000010082;2394
311;1.0043556000000535;2394
312;1.0073785000004136;2394
313;1.0103612000002613;2393
314;1.0133545999997295;2394
315;1.0163818000000902;2394
316;1.019348900001205;2394
317;1.0223301999994874;2394
318;1.0253692000005685;2394
319;1.0283615999996982;2394
320;1.0312062000011792;2395
321;1.03445819999979;2394
322;1.037468100001206;2394
323;1.0404665999994904;2395
324;1.0434684000010748;2395
325;1.0464721000007557;2395
326;1.0492461000012554;2395
327;1.0521914000000834;2394
328;1.0551859000006516;2395
329;1.0583805000005668;2395
330;1.0614505000012286;2395
331;1.0644788999998127;2395
332;1.0674672000004648;2395
333;1.0704961999999796;2395
334;1.0734821999994892;2395
335;1.0764828000010311;2395
336;1.0794853999996121;2396
337;1.0824852999994619;2396
338;1.0854825000005803;2396
339;1.0882829000001948;2396
340;1.0913187000005564;2396
341;1.0943181000002369;2396
342;1.0973458000007668;2396
343;1.1008925999994972;2397
344;1.104849600000307;2397
345;1.1086895000007644;2397
346;1.1122536000002583;2397
347;1.115161800000351;2398
348;1.1187164000002667;2398
349;1.122742499999731;2399
350;1.126746699999785;2399
351;1.1301944000006188;2399
352;1.1334788000003755;2399
353;1.1364833999996335;2399
354;1.1394810000001598;2400
355;1.1423073000005388;2400
356;1.1452765000012732;2401
357;1.1483772999999928;2401
358;1.1517954000009922;2401
359;1.1558079999995243;2402
360;1.159293599999728;2403
361;1.1624516000010772;2403
362;1.1651731000001746;2403
363;1.1684827999997651;2404
364;1.1714764000007563;2404
365;1.1747529000003851;2405
366;1.1788326000005327;2405
367;1.182706200001121;2405
368;1.1872182000006433;2406
369;1.191808100000344;2407
370;1.1958277000012458;2407
371;1.1996866000008595;2408
372;1.2041225000011764;2409
373;1.2086175000004005;2410
374;1.2129801000010048;2410
375;1.2168634999998176;2411
376;1.2210033000010299;2411
377;1.2249818000000232;2412
378;1.228977799999484;2412
379;1.232411900000443;2413
380;1.235630500001207;2413
381;1.2384029000004375;2414
382;1.2415916999998444;2414
383;1.2445860999996512;2415
384;1.2474240000010468;2415
385;1.2504492000007303;2415
386;1.2546008999997866;2416
387;1.257590600000185;2416
388;1.261598999999478;2417
389;1.2646168999999645;2417
390;1.2674465000000055;2417
391;1.2706104999997478;2418
392;1.2736012000004848;2418
393;1.2766157000005478;2419
394;1.2805872999997518;2420
395;1.2835900999998557;2421
396;1.2865872000002128;2422
397;1.2895970000008674;2422
398;1.29259600000114;2423
399;1.2955906000006507;2423
400;1.2983838000000105;2424
401;1.3015893000010692;2424
402;1.304585900001257;2425
403;1.3075957000000926;2425
404;1.3106222999995225;2426
405;1.3146118000004208;2427
406;1.3174077000003308;2428
407;1.3206181000005017;2428
408;1.3246154999997088;2429
409;1.3285878999995475;2430
410;1.3313682999996672;2431
411;1.3343684000010398;2431
412;1.337597600000663;2432
413;1.3405892999999196;2433
414;1.3445874999997613;2433
415;1.3475701000006666;2434
416;1.351416400000744;2434
417;1.3559691999998904;2434
418;1.3599401999999827;2435
419;1.3638676999999007;2436
420;1.3678865000001679;2436
421;1.3718446000002587;2436
422;1.375745100000131;2437
423;1.3797826999998506;2438
424;1.3839594000000943;2438
425;1.3879792000007;2439
426;1.3917159000011452;2439
427;1.3944936000007147;2440
428;1.3975889000012103;2440
429;1.4004884999994829;2440
430;1.4048985000008543;2441
431;1.4087016000012227;2442
432;1.411494699999821;2442
433;1.414328700000624;2443
434;1.41736260000107;2443
435;1.420208100000309;2444
436;1.4232341999995697;2444
437;1.426229800001238;2444
438;1.4291704999996;2445
439;1.4322537999996712;2445
440;1.4352324999999837;2446
441;1.437215300000389;2446
442;1.4402112000007037;2447
443;1.4432544999999664;2447
444;1.4462346000000252;2447
445;1.4492590000008931;2448
446;1.4522362999996403;2448
447;1.4552350000012666;2449
448;1.45826390000002;2449
449;1.4612011000008351;2449
450;1.4631853999999294;2450
451;1.4651671999999962;2450
452;1.4670662999997148;2450
453;1.4690833000004204;2450
454;1.4710372999998071;2450
455;1.4729762000006303;2450
456;1.4749716999995144;2451
457;1.4769917000012356;2451
458;1.4797307000008004;2451
459;1.4838163000003988;2451
460;1.4877740000010817;2452
461;1.4916657000012492;2452
462;1.495773900000131;2453
463;1.499766200000522;2453
464;1.5037836999999854;2453
465;1.5072211000006064;2454
466;1.510823900000105;2455
467;1.5147385000000213;2455
468;1.5175746000004438;2456
469;1.5215814000002865;2456
470;1.525798599999689;2456
471;1.5298053999995318;2457
472;1.5337533000001713;2457
473;1.537757899999633;2457
474;1.5402601000005234;2457
475;1.5437213000004704;2458
476;1.5478479000012157;2458
477;1.5514505999999528;2458
478;1.554388000000472;2458
479;1.5574004000009154;2458
480;1.5606509999997797;2458
481;1.563659600000392;2458
482;1.566784500000722;2458
483;1.5707538000006025;2458
484;1.5747669000011228;2458
485;1.5787780000009661;2458
486;1.5823054000011325;2457
487;1.585529600000882;2457
488;1.588513000000603;2458
489;1.5915162000001146;2457
490;1.594555699999546;2457
491;1.5974942000011652;2458
492;1.6004572000001644;2458
493;1.6034532000012405;2458
494;1.606442500000412;2458
495;1.6094759000006889;2458
496;1.6124732000007498;2458
497;1.615479600000981;2458
498;1.6184891000011703;2458
499;1.6214844999994966;2458
500;1.6244803999998112;2458
501;1.6270357000012154;2458
502;1.6304854999998497;2458
503;1.6334876000000804;2458
504;1.636502900000778;2458
505;1.6394849000007525;2457
506;1.6425335000003543;2458
507;1.6454936999998608;2457
508;1.648242700000992;2457
509;1.6514884000007442;2457
510;1.65449450000051;2457
511;1.6574891000000207;2456
512;1.660259700000097;2456
513;1.6634844000000157;2456
514;1.6665006000002904;2456
515;1.6694937000011123;2455
516;1.6724909000004118;2455
517;1.675493099999585;2455
518;1.678490000000238;2454
519;1.6812305000003107;2454
520;1.68449210000108;2454
521;1.687490500000422;2454
522;1.6902177000010852;2453
523;1.6934851999994862;2453
524;1.6964932999999291;2452
525;1.699494100001175;2452
526;1.7024841000002198;2452
527;1.705401900000652;2451
528;1.708491100000174;2451
529;1.7115026999999827;2451
530;1.7143629000001965;2451
531;1.7174807999999757;2451
532;1.7204854999999952;2451
533;1.7234975000010309;2451
534;1.726493500000288;2450
535;1.7294918000006874;2450
536;1.7324953999996069;2450
537;1.7354919000008522;2449
538;1.7384870000005321;2448
539;1.741466900000887;2448
540;1.744463299999552;2447
541;1.7474756999999954;2447
542;1.750483699999677;2446
543;1.7532198000008066;2446
544;1.7565002000010281;2445
545;1.7594846000010875;2445
546;1.762492400001065;2444
547;1.7653523000008136;2444
548;1.7685039000007237;2444
549;1.7714998000010382;2443
550;1.7744959000010567;2443
551;1.7774901000011596;2443
552;1.780344900000273;2442
553;1.7834927000003518;2442
554;1.7863955000011629;2442
555;1.7893834999995306;2441
556;1.7923879000009038;2440
557;1.795389000000796;2439
558;1.798233400000754;2439
559;1.801397299999735;2439
560;1.8043894000002183;2439
561;1.8073837000010826;2438
562;1.8103730000002543;2437
563;1.8133796000001894;2437
564;1.8163564999995288;2438
565;1.8193903000010323;2437
566;1.8223815000001196;2436
567;1.8253839000008156;2436
568;1.8283929000008357;2436
569;1.8312407000012172;2435
570;1.8343853000005765;2435
571;1.8373818000000028;2434
572;1.8403780999997252;2433
573;1.8433743000005052;2433
574;1.846386799999891;2433
575;1.8493889000001218;2432
576;1.8523777000009432;2432
577;1.855384000000413;2431
578;1.8583794999995007;2431
579;1.8613798999995197;2430
580;1.8642548000007082;2430
581;1.8673558000009507;2430
582;1.870352300000377;2430
583;1.8733573000008619;2429
584;1.8763646000006702;2428
585;1.8792071999996551;2428
586;1.8821385000010196;2428
587;1.8853497000000061;2428
588;1.8883853999996063;2427
589;1.8913494999997056;2427
590;1.8943288999998913;2426
591;1.897305200000119;2426
592;1.9003740999996808;2425
593;1.9033603000007133;2425
594;1.9063846000008198;2425
595;1.9096434000002773;2424
596;1.9134360999996716;2424
597;1.916719799999555;2423
598;1.9207743000006303;2423
599;1.9248711000000185;2422
600;1.92888160000075;2422
601;1.932445700000244;2421
602;1.9368209000003844;2421
603;1.9408136000001832;2420
604;1.9448317999995197;2419
605;1.9482710000011139;2418
606;1.9517530000011902;2417
607;1.95580979999977;2416
608;1.9598118000012619;2415
609;1.9634000999994896;2415
610;1.9667919000003167;2414
611;1.970819100000881;2413
612;1.9747509000007994;2413
613;1.9788437000006525;2412
614;1.9827299999997194;2412
615;1.9868248000002495;2411
616;1.9908219999997527;2410
617;1.9948115999995935;2409
618;1.997779499999524;2409
619;2.001800199999707;2408
620;2.0058036999998876;2407
621;2.0097827000008692;2407
622;2.0138325999996596;2407
623;2.016729099999793;2407
624;2.0208222000001115;2406
625;2.0247369000007893;2406
626;2.0283299000002444;2406
627;2.0313845000000583;2405
628;2.035826999999699;2405
629;2.039812000000893;2404
630;2.0437820999995893;2404
631;2.0474714000010863;2403
632;2.0514172000002873;2403
633;2.0547630000000936;2402
634;2.0584082000004855;2402
635;2.061578599999848;2401
636;2.0644615000001068;2401
637;2.0677687999996124;2401
638;2.071845599999506;2401
639;2.075793400001203;2400
640;2.0798211000001174;2400
641;2.0825590000004013;2399
642;2.086830199999895;2399
643;2.0907920000008744;2399
644;2.0948187000012695;2398
645;2.0977058000007673;2398
646;2.101765499999601;2397
647;2.1058441000004677;2397
648;2.109804100000474;2397
649;2.113824100000784;2397
650;2.1167490999996517;2397
651;2.1208337000007305;2396
652;2.1246745999997074;2396
653;2.128806500000792;2397
654;2.132770000000164;2397
655;2.136845600000015;2397
656;2.14080389999981;2397
657;2.1442915000006906;2397
658;2.147244800000408;2397
659;2.1508439000008366;2396
660;2.154827500000465;2396
661;2.1588169999995444;2396
662;2.1628490000002785;2396
663;2.166822900000625;2396
664;2.170855300000767;2396
665;2.1743574000010994;2396
666;2.1777980999995634;2396
667;2.18140029999995;2396
668;2.184768500001155;2396
669;2.1888412999996945;2396
670;2.1916961000006268;2396
671;2.1947462999996787;2396
672;2.198382300000958;2396
673;2.2017974000009417;2396
674;2.2056059000005916;2397
675;2.2098526999998285;2396
676;2.2138322000009794;2397
677;2.216751600000862;2397
678;2.220846600001096;2397
679;2.2246592000010423;2398
680;2.2277668999995512;2398
681;2.2314053000009153;2399
682;2.2358655000007275;2399
683;2.2398236999997607;2399
684;2.2438211999997293;2400
685;2.247850499999913;2401
686;2.2518385000003036;2402
687;2.2553717999999208;2402
688;2.2587677000010444;2401
689;2.262838599999668;2402
690;2.2668045999998867;2402
691;2.2708106999998563;2403
692;2.27468349999981;2403
693;2.2777708000012353;2404
694;2.2814022000002296;2404
695;2.2858343999996578;2405
696;2.289849900000263;2405
697;2.293822600000567;2406
698;2.2978536000009626;2406
699;2.301828100000421;2406
700;2.305849500000477;2406
701;2.3097983000006934;2407
702;2.3127340999999433;2407
703;2.3167761000004248;2408
704;2.3208360000007815;2408
705;2.3246288999998796;2409
706;2.3276114000000234;2410
707;2.331401299999925;2410
708;2.3348071000000346;2410
709;2.3376241000005393;2411
710;2.3417766000002302;2411
711;2.345829199999571;2411
712;2.3497951999997895;2412
713;2.3538497000008647;2413
714;2.3578254000003653;2413
715;2.3618200000000797;2414
716;2.365325599999778;2414
717;2.3687823000000208;2415
718;2.3728418000009697;2415
