;time;amplitude
0;0.005203000000619795;3713
1;0.010169600000153878;3741
2;0.014673499999844353;3769
3;0.020202399999107;3793
4;0.025198299999829032;3819
5;0.03030419999959122;3843
6;0.035095999999612104;3868
7;0.04011969999919529;3892
8;0.045204199999716366;3916
9;0.05001950000041688;3939
10;0.05492520000007062;3964
11;0.0599951999993209;3985
12;0.06444340000052762;4005
13;0.07002379999903496;4027
14;0.07456880000063393;4048
15;0.0789571999994223;4068
16;0.08403510000061942;4086
17;0.08901689999947848;4107
18;0.09403039999961038;4126
19;0.09850360000018554;4149
20;0.10294749999957276;4165
21;0.1073603999993793;4182
22;0.11146299999927578;4196
23;0.1151996999997209;4210
24;0.11823519999961718;4223
25;0.12283939999906579;4233
26;0.12783479999961855;4251
27;0.13333679999959713;4269
28;0.13786780000009458;4279
29;0.1428684999991674;4291
30;0.14708860000064305;4301
31;0.15015949999906297;4306
32;0.15452109999932873;4310
33;0.1583769000008033;4315
34;0.16253879999931087;4317
35;0.1666860999994242;4318
36;0.17066689999955997;4317
37;0.1746552000004158;4315
38;0.17979469999954745;4312
39;0.1846298000000388;4305
40;0.18970579999950132;4297
41;0.19367459999921266;4287
42;0.19724700000006123;4278
43;0.2017637000008108;4269
44;0.2066820000000007;4254
45;0.21071520000077726;4241
46;0.21557450000000244;4228
47;0.21957970000039495;4213
48;0.22363849999965169;4200
49;0.22757590000037453;4186
50;0.23138490000019374;4171
51;0.23568449999947916;4158
52;0.2396785999990243;4142
53;0.24331379999966884;4127
54;0.2473707999997714;4114
55;0.2517368999997416;4098
56;0.25534440000046743;4080
57;0.25973850000082166;4066
58;0.26321069999903557;4047
59;0.2663185000001249;4034
60;0.2707319999990432;4021
61;0.27417740000055346;4001
62;0.278873699999167;3987
63;0.28260670000054233;3967
64;0.28633479999916744;3947
65;0.29045980000046256;3932
66;0.29486069999984466;3913
67;0.29841060000035213;3892
68;0.3028279999998631;3875
69;0.30783060000067053;3851
70;0.3128369999994902;3827
71;0.31656999999904656;3806
72;0.3203680999995413;3786
73;0.3246712000000116;3768
74;0.32982760000049893;3745
75;0.33351779999975406;3720
76;0.33730540000033216;3700
77;0.341846400000577;3683
78;0.34684229999948;3654
79;0.35053659999903175;3631
80;0.3553577000002406;3607
81;0.3597664999997505;3587
82;0.3634447000004002;3562
83;0.36805900000035763;3542
84;0.3727338000007876;3514
85;0.3764155999997456;3489
86;0.3804089999994176;3470
87;0.38434830000005604;3445
88;0.38884649999999965;3424
89;0.39380659999915224;3393
90;0.39833919999909995;3364
91;0.4027117999994516;3343
92;0.40786110000044573;3314
93;0.41287259999990056;3285
94;0.41632949999984703;3255
95;0.42084849999992;3235
96;0.42586300000039046;3204
97;0.4304119000007631;3174
98;0.43478759999925387;3147
99;0.43857570000000123;3122
100;0.44280000000071595;3097
101;0.4467490999995789;3072
102;0.45175879999987956;3044
103;0.4557265000003099;3016
104;0.45934610000040266;2989
105;0.4631011000001308;2969
106;0.46784459999980754;2945
107;0.47283729999981006;2911
108;0.47787609999977576;2878
109;0.4828374000007898;2850
110;0.48776530000031926;2818
111;0.491339500000322;2787
112;0.49521219999951427;2766
113;0.49819059999936144;2742
114;0.5011276999994152;2724
115;0.5045549999995274;2705
116;0.5085514000002149;2680
117;0.512684100000115;2657
118;0.5165629000002809;2631
119;0.520490000000791;2603
120;0.5245130000002973;2578
121;0.5285421000007773;2553
122;0.5325596999991831;2529
123;0.5364938000002439;2500
124;0.5406734999996843;2475
125;0.5444724000008136;2447
126;0.5485057999994751;2422
127;0.5524943000000349;2396
128;0.5564042000005429;2371
129;0.5605379000007815;2345
130;0.5641465000007884;2318
131;0.5674359000004188;2295
132;0.5712860999992699;2275
133;0.5742460999990726;2251
134;0.5773463000004995;2234
135;0.5814537999995082;2209
136;0.587101299999631;2178
137;0.5920900000000984;2145
138;0.5972080999999889;2114
139;0.6018244000006234;2082
140;0.6067628000000695;2049
141;0.6116003999995883;2015
142;0.6156184999999823;1992
143;0.6196486000008008;1965
144;0.6237258999990445;1940
145;0.6273144000006141;1915
146;0.6300240000000485;1895
147;0.6335237999992387;1880
148;0.6375322999992932;1855
149;0.6415292999990925;1831
150;0.6455282000006264;1805
151;0.6480214000002888;1783
152;0.6515225000002829;1769
153;0.6554969000007986;1742
154;0.6595206999991206;1719
155;0.6628779999991821;1693
156;0.6664934000000358;1677
157;0.6705015000006824;1652
158;0.6745066999992559;1629
159;0.6779874000003474;1607
160;0.6810069999992265;1586
161;0.6841996999992261;1566
162;0.6871979000006831;1549
163;0.6902097000001959;1531
164;0.6930154999990918;1515
165;0.6960447000001295;1498
166;0.6990781000004063;1482
167;0.7021108999997523;1461
168;0.705092500000319;1447
169;0.7081175999992411;1429
170;0.7111198999991757;1412
171;0.7140314000007493;1395
172;0.7171183999998902;1377
173;0.7201220999995712;1361
174;0.7231037000001379;1345
175;0.7260956999998598;1329
176;0.7291002000001754;1313
177;0.7321004000004905;1297
178;0.7350719000005483;1281
179;0.7380897000002733;1266
180;0.7410968000003777;1250
181;0.7441252000007808;1234
182;0.7469889000003604;1218
183;0.7501100999998016;1203
184;0.7531276999998227;1187
185;0.7561139999997977;1173
186;0.7590956000003644;1159
187;0.7621257999999216;1144
188;0.7651292999998986;1129
189;0.768128899999283;1113
190;0.7711044999996375;1099
191;0.7741390999999567;1084
192;0.7771116000003531;1071
193;0.7800339000004897;1056
194;0.7831466000006913;1042
195;0.7860961000005773;1028
196;0.7891197000008106;1016
197;0.79205759999968;1002
198;0.7951171000004251;989
199;0.7981125999995129;975
200;0.8011456000003818;963
201;0.8041200000006938;949
202;0.8072296999998798;935
203;0.8100864000007277;923
204;0.8129181999993307;910
205;0.8161044999997102;899
206;0.8190918000000238;885
207;0.822103700000298;873
208;0.8251211000006151;862
209;0.8280978000002506;850
210;0.83108859999993;838
211;0.8340382000005775;827
212;0.8371962000001076;816
213;0.840207699999155;803
214;0.8432274000006146;793
215;0.8461855999994441;781
216;0.8491854000003514;770
217;0.8521942999996099;760
218;0.8550211000001582;750
219;0.8581844000000274;741
220;0.86122880000039;729
221;0.8640883000007307;720
222;0.8671952999993664;712
223;0.8698757999991358;701
224;0.8731771000002482;694
225;0.8762260999992577;685
226;0.8792026999999507;676
227;0.882219699999041;668
228;0.8851957000006223;660
229;0.8880635000004986;653
230;0.8911785000000236;647
231;0.8941897999993671;641
232;0.8969627999995282;635
233;0.9001996999995754;631
234;0.9040215000004537;625
235;0.9072223999992275;622
236;0.910200000000259;618
237;0.9129570000004605;616
238;0.9161812000002101;615
239;0.9191874999996799;614
240;0.9221980000002077;614
241;0.9251965999992535;614
242;0.9281886999997369;616
243;0.9312296999996761;618
244;0.9340881999996782;621
245;0.9372065999996266;624
246;0.9401907999999821;627
247;0.9431889999996201;632
248;0.9461962999994284;637
249;0.9491923000005045;643
250;0.9522147000006953;649
251;0.9552081000001635;655
252;0.9581954000004771;662
253;0.9611820999998599;670
254;0.9640638000000763;678
255;0.9671899999993911;684
256;0.9701970000005531;694
257;0.9731962999994721;703
258;0.9762097000002541;712
259;0.9792020000004413;721
260;0.9819626999997126;729
261;0.9851966999995057;738
262;0.9881870000008348;749
263;0.9911890000003041;759
264;0.9942006000001129;769
265;0.9970061000003625;779
266;1.000214399999095;789
267;1.0031952999997884;799
268;1.0061987999997655;810
269;1.0091833999995288;821
270;1.0119629000000714;832
271;1.0152187000003323;842
272;1.018187300000136;854
273;1.0210659999993368;866
274;1.024189399999159;877
275;1.0270440999993298;889
276;1.0299221999994188;899
277;1.0331960999992589;912
278;1.0362256999997044;926
279;1.0391887000005227;938
280;1.0421941000004153;950
281;1.04519529999925;962
282;1.0481918000004953;975
283;1.0510395000001154;988
284;1.0541828999994323;1001
285;1.0571889999991981;1015
286;1.0601810999996815;1028
287;1.0629520999991655;1042
288;1.0661791000002268;1055
289;1.0692175000003772;1071
290;1.0721928999992087;1084
291;1.0750545999999304;1100
292;1.078230099999928;1114
293;1.081191499999477;1127
294;1.0840475999993942;1142
295;1.0872381000008318;1156
296;1.0900454000002355;1172
297;1.0931856999995944;1186
298;1.096169700000246;1202
299;1.099223900000652;1218
300;1.1021829000001162;1233
301;1.105206399999588;1249
302;1.1082117000005383;1264
303;1.1112142000001768;1279
304;1.114035500000682;1295
305;1.117206900000383;1311
306;1.120225999999093;1327
307;1.123208799999702;1343
308;1.1262100000003556;1360
309;1.129031299999042;1376
310;1.1322070000005624;1392
311;1.1352069999993546;1410
312;1.1381861999998364;1426
313;1.1411910999995598;1444
314;1.1441820000000007;1461
315;1.1469928000005893;1477
316;1.1501871000000392;1493
317;1.153197800000271;1512
318;1.1561911000007967;1529
319;1.1591876999991655;1547
320;1.1619771999994555;1565
321;1.1649491000007401;1580
322;1.167949900000167;1598
323;1.170965299999807;1615
324;1.1741674999993847;1634
325;1.1768446000005497;1655
326;1.180039200000465;1668
327;1.1829201000000467;1689
328;1.185924100000193;1705
329;1.1889117999999144;1723
330;1.191925999999512;1742
331;1.1949430000004213;1760
332;1.1981737000005523;1777
333;1.2012250999996468;1797
334;1.204170700000759;1815
335;1.2071696999992128;1836
336;1.2102133999997022;1852
337;1.2129824999992707;1870
338;1.2160865999994712;1889
339;1.219044400000712;1908
340;1.2220565999996325;1925
341;1.2250779999994847;1945
342;1.2280575999993744;1963
343;1.2312096000005113;1983
344;1.2340810999994574;2001
345;1.2371870999995735;2021
346;1.2401934999998048;2040
347;1.2431935999993584;2058
348;1.2460515999991912;2075
349;1.2491883999991842;2096
350;1.2522231999992073;2116
351;1.2551822999994329;2134
352;1.2581927999999607;2153
353;1.261184900000444;2173
354;1.26418989999911;2193
355;1.2671941000007791;2211
356;1.2700569000007818;2233
357;1.2732195999997202;2249
358;1.2762168999997812;2270
359;1.2792208999999275;2290
360;1.2821848000003229;2308
361;1.2851890999991156;2330
362;1.2880507999998372;2350
363;1.291060199999265;2367
364;1.2941800000007788;2386
365;1.2969400999991194;2407
366;1.3002089999990858;2425
367;1.303181699999186;2446
368;1.3060382999992726;2466
369;1.3091858999996475;2483
370;1.3121804000002157;2503
371;1.31520620000083;2522
372;1.318208799999411;2542
373;1.3212065999996412;2562
374;1.3241847999997844;2581
375;1.327215499999511;2603
376;1.3299332999995386;2621
377;1.3332135000000562;2641
378;1.3362044000004971;2662
379;1.3399403000003076;2685
380;1.3432081999999355;2704
381;1.346015900000566;2726
382;1.349116999999751;2742
383;1.352096700000402;2763
384;1.3550551000007545;2782
385;1.358209899999565;2801
386;1.3612111999991612;2821
387;1.3640393000005133;2840
388;1.3672208999996656;2857
389;1.3702167999999801;2878
390;1.373214499999449;2897
391;1.37618669999938;2919
392;1.379193299999315;2936
393;1.3822087999997166;2956
394;1.385123800000656;2976
395;1.3882152999995014;2993
396;1.3912049999998999;3013
397;1.394043899999815;3033
398;1.397099399999206;3049
399;1.4002070000005915;3068
400;1.403219199999512;3086
401;1.406222899999193;3105
402;1.4092103999992105;3124
403;1.4122298999991472;3142
404;1.4152130999991641;3159
405;1.4182079999991402;3179
406;1.4212222000005568;3197
407;1.424220000000787;3217
408;1.4272135999999591;3236
409;1.4300292000007175;3252
410;1.4332185000002937;3271
411;1.4362146999992547;3288
412;1.4392091999998229;3306
413;1.442222199999378;3324
414;1.445220400000835;3342
415;1.4479250000003958;3358
416;1.4511939999993047;3376
417;1.4542117000000871;3395
418;1.4572088000004442;3415
419;1.460073199999897;3433
420;1.4629707999993116;3448
421;1.4662057000005007;3467
422;1.4692159999995056;3485
423;1.472212299999228;3502
424;1.475205200000346;3519
425;1.4780733000006876;3536
426;1.4812253000000055;3548
427;1.4842100000005303;3569
428;1.4872054000006756;3584
429;1.490218000000823;3602
430;1.4932189999999537;3617
431;1.4959295000007842;3635
432;1.4989745000002586;3649
433;1.5021969999997964;3663
434;1.5051946000003227;3681
435;1.508210300000428;3697
436;1.511026899999706;3713
437;1.5140886999997747;3728
438;1.51721390000057;3744
439;1.5202157000003353;3760
440;1.5232144000001426;3774
441;1.526124300000447;3790
442;1.5292931000003591;3805
443;1.5322188999998616;3820
444;1.5352125999997952;3834
445;1.5382126999993488;3849
446;1.5411941000002116;3865
447;1.5442096000006131;3878
448;1.5470733999991353;3893
449;1.5502278999992996;3906
450;1.5532105000002048;3921
451;1.556210500000816;3935
452;1.560037299999749;3952
453;1.562971800000014;3966
454;1.566208899999765;3980
455;1.5690463999999338;3996
456;1.5722175999999308;4007
457;1.5752243999995699;4022
458;1.5781953999994585;4035
459;1.5812162999991415;4047
460;1.5842097000004287;4060
461;1.587213700000575;4072
462;1.590227099999538;4084
463;1.5932092999992165;4095
464;1.5960013000003528;4108
465;1.5992089999999735;4118
466;1.6022241999999096;4131
467;1.6050445999990188;4142
468;1.608028299999205;4153
469;1.6110088000004907;4165
470;1.6140515999995841;4175
471;1.617048199999772;4186
472;1.6200461000007635;4196
473;1.6231024999997317;4207
474;1.6261044000002585;4218
475;1.6290024999998423;4228
476;1.632220999999845;4237
477;1.635213899999144;4248
478;1.6382095999997546;4257
479;1.6412061999999423;4265
480;1.644216000000597;4273
481;1.6469713000005868;4279
482;1.650214799999958;4286
483;1.6532174000003579;4293
484;1.6562071999996988;4299
485;1.6592206000004808;4304
486;1.6622198000004573;4307
487;1.6652080999992904;4311
488;1.6682206999994378;4313
489;1.6712095999992016;4315
490;1.6742118000001938;4316
491;1.6769930999998905;4316
492;1.6800447999994503;4316
493;1.683064299999387;4314
494;1.6866073000001052;4312
495;1.6905769000004511;4308
496;1.6945732999993197;4303
497;1.6985175999998319;4297
498;1.7025154000002658;4289
499;1.7065204999998969;4280
500;1.7100807999995595;4269
501;1.7131174999994982;4261
502;1.7160753999996814;4251
503;1.7190136000008351;4244
504;1.7220051000003878;4235
505;1.7250636999997369;4225
506;1.7280307000000903;4216
507;1.7310524999993504;4206
508;1.7340349999994942;4195
509;1.7370442999999796;4186
510;1.7400412999995751;4175
511;1.7430452999997215;4165
512;1.7459639999997307;4154
513;1.7492201999993995;4143
514;1.7522176999991643;4130
515;1.7550940999990416;4119
516;1.758212700000513;4109
517;1.7612184999998135;4096
518;1.7640042000002722;4085
519;1.7671501000004355;4074
520;1.7702198999995744;4061
521;1.7732235999992554;4049
522;1.7762185999999929;4036
523;1.7793903000001592;4023
524;1.7822111999994377;4010
525;1.7851233999990654;3997
526;1.7881271000005654;3985
527;1.791121700000076;3972
528;1.794213299999683;3958
529;1.7970444000002317;3946
530;1.800214099999721;3932
531;1.8032132999996975;3918
532;1.8062238999991678;3904
533;1.8092168999992282;3890
534;1.8121878999991168;3876
535;1.815216799999689;3863
536;1.8182149999993271;3847
537;1.8212187999997695;3833
538;1.8242169999994076;3818
539;1.8272175999991305;3804
540;1.8299709000002622;3789
541;1.8332085000001825;3775
542;1.8362362000007124;3758
543;1.8390772999991896;3742
544;1.8418985999996949;3730
545;1.845214400000259;3715
546;1.8482043999993039;3700
547;1.8512143999996624;3683
548;1.8542238999998517;3668
549;1.8572189000005892;3652
550;1.8602214000002277;3636
551;1.8629799999998795;3620
552;1.8662134000005608;3605
553;1.8692064000006212;3587
554;1.8722161000005144;3571
555;1.8752153999994334;3555
556;1.87818420000076;3537
557;1.881219400000191;3522
558;1.8840784000003623;3504
559;1.8872107000006508;3488
560;1.89121139999952;3465
561;1.8942053999999189;3447
562;1.897078899999542;3430
563;1.9002206999994087;3414
564;1.9032119999992574;3395
565;1.9070651000001817;3374
566;1.910204199999498;3355
567;1.9129845999996178;3338
568;1.9162197000005108;3321
569;1.9192156999997678;3301
570;1.922040699999343;3285
571;1.925221400000737;3268
572;1.9282029000005423;3249
573;1.9312129999998433;3233
574;1.9340948999997636;3214
575;1.9372103000005154;3197
576;1.9402172999998584;3178
577;1.943210999999792;3159
578;1.9459136000004946;3142
579;1.949208300000464;3127
580;1.9520001000000775;3106
581;1.95521589999953;3088
582;1.9582097999991674;3068
583;1.9612247999993997;3051
584;1.964217999999164;3032
585;1.9671099999995931;3013
586;1.9702168999992864;2995
587;1.9732091000005312;2976
588;1.9762200999994093;2957
589;1.9789897999999084;2938
590;1.982222599999659;2921
591;1.9849579999990965;2901
592;1.9882455000006303;2883
593;1.9912263000005623;2861
594;1.9942085999991832;2840
595;1.9970542999999452;2821
596;2.0009620000000723;2798
597;2.0042162999998254;2778
598;2.007225199999084;2758
599;2.010215500000413;2738
600;2.0129890000007435;2719
601;2.0162142000008316;2702
602;2.019217299999582;2679
603;2.0222444999999425;2660
604;2.0252256999992824;2641
605;2.0282200000001467;2621
606;2.031224399999701;2606
607;2.0340983999994933;2585
608;2.0372305999990203;2566
609;2.0402039000000514;2546
610;2.0432110999990982;2526
611;2.045947200000228;2507
612;2.0492063999990933;2490
613;2.052216399999452;2468
614;2.0552148000006127;2449
615;2.058215700000801;2429
616;2.061078099999577;2408
617;2.0642337999997835;2394
618;2.067232299999887;2371
619;2.0702127999993536;2353
620;2.0732380999997986;2333
621;2.076190100000531;2315
622;2.0793353999997635;2295
623;2.0822126000002754;2274
624;2.0852219999997033;2255
625;2.0882354000004852;2236
626;2.0912312000000384;2216
627;2.0942168999990827;2196
628;2.097212999999101;2178
629;2.100207899999077;2159
630;2.1032171999995626;2140
631;2.1062127000004693;2119
632;2.1088775000007445;2102
633;2.1122443999993266;2085
634;2.1151675999990402;2063
635;2.1181722999990598;2044
636;2.1211731000003056;2026
637;2.124169400000028;2007
638;2.127175499999794;1988
639;2.1300069999997504;1969
640;2.1336209000000963;1950
641;2.1375662999998895;1925
642;2.141594000000623;1901
643;2.145445899999686;1876
644;2.1483599999992293;1855
645;2.1525985000007495;1833
646;2.156466200000068;1807
647;2.1604915000007168;1786
648;2.1642346999997244;1758
649;2.1685747999999876;1736
650;2.172541899999487;1712
651;2.1760754000006273;1688
652;2.179486299999553;1669
653;2.1824897000005876;1649
654;2.1865868999993836;1630
655;2.1905563000000257;1604
656;2.194529099999272;1580
657;2.19852709999941;1557
658;2.20252359999904;1533
659;2.206510599999092;1509
660;2.2105842999990273;1489
661;2.214480700000422;1465
662;2.2185461000008218;1443
663;2.2225395000004937;1420
664;2.226136100000076;1398
665;2.2301205999992817;1377
666;2.234456800000771;1355
667;2.238555300000371;1333
668;2.240977600000406;1312
669;2.2445535999995627;1300
670;2.2481437000005826;1279
671;2.251507099999799;1261
672;2.2555264999991778;1242
673;2.2595017999992706;1220
674;2.2630229000005784;1201
675;2.266154999999344;1184
676;2.2691818999992392;1169
677;2.2721574999995937;1154
678;2.275123999999778;1138
679;2.2780289000002085;1125
680;2.281039800000144;1112
681;2.2842211999995925;1096
682;2.28723379999974;1080
683;2.2902852000006533;1066
684;2.293229099999735;1052
685;2.295956300000398;1038
686;2.299227699999392;1027
687;2.3022462999997515;1013
688;2.3052754000000277;999
689;2.3082431000002543;986
690;2.311234200000399;973
691;2.3142179000005854;961
692;2.317082199999277;948
693;2.320259399999486;936
694;2.3232917999994243;923
695;2.32627390000016;911
696;2.3291877999999997;899
697;2.332236500000363;887
698;2.3352763000002597;875
699;2.338253399999303;863
700;2.3412389000004623;852
701;2.344222899999295;840
702;2.347083399999974;830
703;2.3502535999996326;820
704;2.3532859000006283;808
705;2.3562688999991224;797
706;2.3590463000000454;787
707;2.362266099999033;777
708;2.365258800000447;767
709;2.368236000000252;756
710;2.37122669999917;746
711;2.374305199999071;737
712;2.377265699999043;727
713;2.380136100000527;718
714;2.3832994000003964;710
715;2.3862632000000303;699
716;2.38923799999975;691
717;2.392278900000747;683
718;2.3952523000007204;675
719;2.3982199000001856;668
720;2.4012402999996993;660
721;2.404256100000566;653
722;2.4072438000002876;647
723;2.4102304999996704;641
724;2.4130222000003414;636
