;time;amplitude
0;0.0023825000007491326;4057
1;0.005440200000521145;4048
2;0.008792100000391656;4038
3;0.02315360000011424;4015
4;0.04130390000045736;3966
5;0.045318000000406755;3905
6;0.05236670000067534;3878
7;0.056942500000332075;3863
8;0.05946620000031544;3845
9;0.06242770000062592;3834
10;0.06646160000036616;3817
11;0.06964520000019547;3804
12;0.07232800000019779;3791
13;0.07528739999997924;3778
14;0.07834850000017468;3764
15;0.08147809999991296;3751
16;0.08511380000072677;3737
17;0.088431700000001;3721
18;0.09139930000037566;3706
19;0.0944870000002993;3692
20;0.0974080000005415;3679
21;0.10048679999999877;3663
22;0.10360720000062429;3650
23;0.10636890000023413;3635
24;0.1093391000003976;3622
25;0.1124297000005754;3609
26;0.11552950000077544;3592
27;0.11831230000007054;3578
28;0.1216963000006217;3565
29;0.12539160000051197;3541
30;0.128400600000532;3529
31;0.131882300000143;3515
32;0.1344939999999042;3496
33;0.13832690000072034;3477
34;0.1414416000006895;3464
35;0.14484030000039638;3447
36;0.14746150000064517;3432
37;0.15038710000044375;3417
38;0.15340410000044358;3404
39;0.15652920000047743;3387
40;0.16039010000076814;3365
41;0.16342060000079073;3349
42;0.16642360000059853;3333
43;0.17014090000066062;3315
44;0.17359830000077636;3293
45;0.17641720000028727;3278
46;0.17934090000017022;3263
47;0.18252770000071905;3247
48;0.18543700000009267;3226
49;0.18842339999991964;3212
50;0.19136170000001584;3195
51;0.19432680000045366;3180
52;0.19735170000058133;3162
53;0.2008560000003854;3145
54;0.20469600000069477;3124
55;0.20764800000051764;3103
56;0.2107484000007389;3089
57;0.21326649999991787;3068
58;0.21628860000055283;3052
59;0.21846690000074886;3039
60;0.22145820000059757;3025
61;0.22445650000008754;3008
62;0.2275072000002183;2991
63;0.23036250000041036;2974
64;0.23342000000047847;2957
65;0.2362306000004537;2939
66;0.23943750000034925;2923
67;0.2423106000005646;2905
68;0.2452545000005557;2889
69;0.24732769999991433;2874
70;0.25036369999997987;2858
71;0.2533686000006128;2843
72;0.2564516000002186;2825
73;0.2594518000005337;2807
74;0.2625266000004558;2789
75;0.2654824999999619;2771
76;0.2684818000006999;2754
77;0.27161380000052304;2736
78;0.2744581000006292;2717
79;0.2775983000001361;2700
80;0.28031210000062856;2681
81;0.28340250000019296;2665
82;0.286374700000124;2647
83;0.289414000000761;2630
84;0.29369210000004387;2606
85;0.29756910000014614;2581
86;0.30074750000039785;2560
87;0.3045050999999148;2541
88;0.3074569000000338;2521
89;0.3103684000006979;2504
90;0.3123881000001347;2488
91;0.31436180000036984;2475
92;0.3172035000006872;2462
93;0.3202147000001787;2444
94;0.3234384000006685;2426
95;0.32638540000061766;2407
96;0.3298975000006976;2387
97;0.3327638000000661;2368
98;0.33567820000007487;2349
99;0.33869030000005296;2332
100;0.34149670000078913;2312
101;0.3455794999999853;2291
102;0.3484668999999485;2273
103;0.3513133000005837;2256
104;0.35432070000024396;2240
105;0.3574858000001768;2222
106;0.36091510000005655;2202
107;0.3648402000007991;2177
108;0.36874790000001667;2154
109;0.3724833000005674;2130
110;0.37577839999994467;2108
111;0.379683400000431;2089
112;0.3824683000002551;2070
113;0.38529340000059165;2053
114;0.38847549999991315;2035
115;0.3914394000003085;2017
116;0.3945765000007668;1999
117;0.39768440000079863;1981
118;0.4003117000002021;1964
119;0.4022911000001841;1950
120;0.4041744000005565;1938
121;0.4138940000002549;1927
122;0.4436046000000715;1735
123;0.44734800000060204;1709
124;0.4503197000003638;1689
125;0.452277000000322;1674
126;0.4542641000007279;1664
127;0.45717600000079983;1651
128;0.4591967000005752;1637
129;0.46115069999996194;1626
130;0.46321090000037657;1616
131;0.46639390000018466;1604
132;0.47009390000039275;1587
133;0.47403660000054515;1565
134;0.4767630000005738;1547
135;0.47976960000050894;1530
136;0.4823478000007526;1515
137;0.48541220000061003;1502
138;0.48826110000027256;1485
139;0.4902908000003663;1472
140;0.493427000000338;1460
141;0.4961529000001974;1443
142;0.49832270000024437;1431
143;0.5004599000003509;1419
144;0.5033124999999927;1408
145;0.5052543000001606;1394
146;0.5087195000005522;1382
147;0.5114341000007698;1366
148;0.5142951000007088;1352
149;0.5173745000001873;1337
150;0.5203079000002617;1322
151;0.5223065000000133;1310
152;0.5242957000000388;1300
153;0.5262808000006771;1290
154;0.5282796000001326;1281
155;0.5301712999998927;1271
156;0.5322953000004418;1263
157;0.5343398000004527;1254
158;0.5362193999999363;1244
159;0.5382320000007894;1235
160;0.5402075000001787;1227
161;0.5424633000002359;1217
162;0.5455795000007129;1205
163;0.5483923000001596;1193
164;0.5513662000003023;1180
165;0.5543665000004694;1166
166;0.556169200000113;1155
167;0.5582686000007016;1148
168;0.5612025000000358;1136
169;0.563256100000217;1125
170;0.5664420000002792;1116
171;0.5694695000001957;1102
172;0.5721917000000758;1090
173;0.5755487000005814;1079
174;0.5784558000004836;1064
175;0.5814875000005486;1054
176;0.5845168000005287;1042
177;0.5874879000002693;1030
178;0.5905118999999104;1019
179;0.5935360000003129;1006
180;0.5962939000000915;996
181;0.5995370999999068;985
182;0.602538000000095;973
183;0.6054794000001493;963
184;0.6084840000003169;952
185;0.6111455000000205;941
186;0.6144881000000169;932
187;0.6175080000002708;921
188;0.6204600999999457;910
189;0.6235190000006696;901
190;0.6265212000007523;892
191;0.6294611000002988;882
192;0.6324891000003845;873
193;0.6354976000002353;863
194;0.6385131000006368;854
195;0.6415110000007189;846
196;0.6443497000000207;837
197;0.6474215000007462;829
198;0.6506274000003032;820
199;0.6534836999999243;811
200;0.6564840000000913;804
201;0.659474200000659;796
202;0.6624563000004855;789
203;0.6655866999999489;782
204;0.6686855000007199;773
205;0.6714281000004121;766
206;0.6744811000007758;760
207;0.6774239000005764;754
208;0.6813613000003897;745
209;0.6844697000005908;738
210;0.6874819000004209;732
211;0.6904953000002934;726
212;0.6935035000005882;720
213;0.6963636999998926;714
214;0.6996281000001545;709
215;0.7026754000007713;703
216;0.7056123000002117;698
217;0.7084807000001092;693
218;0.7116699000007429;689
219;0.7143573000003016;684
220;0.7175889000000097;681
221;0.7205178000003798;677
222;0.7235786000001099;672
223;0.7265207000000373;668
224;0.7295246000003317;664
225;0.7326177000004463;661
226;0.7355309000004127;658
227;0.7385856000000786;655
228;0.7414495000002717;652
229;0.7445973000003505;650
230;0.7472928000006505;648
231;0.7504224000003887;646
232;0.7537148999999772;644
233;0.7579444000002695;643
234;0.7608456000007209;642
235;0.7643748000000414;641
236;0.7679238000000623;641
237;0.771870200000194;641
238;0.7759451000001718;641
239;0.7797017000002597;642
240;0.7824312000002465;643
241;0.7857650000005378;644
242;0.7888306000004377;645
243;0.7927691000004415;648
244;0.7959974000004877;651
245;0.7984642000001259;653
246;0.8017214999999851;656
247;0.8046478000005663;659
248;0.8077385000005961;662
249;0.8106399000007514;666
250;0.8144994000003862;670
251;0.8189374000003227;674
252;0.8229371000006722;680
253;0.8269431000007899;686
254;0.8303165000006629;692
255;0.8324715000007927;696
256;0.8357445999999982;701
257;0.8397508000007292;707
258;0.8426395000005868;713
259;0.8456857000001037;719
260;0.8483845999999176;724
261;0.8518518999999287;730
262;0.8557780999999522;738
263;0.8597714000006818;747
264;0.8635216000002401;755
265;0.866873800000576;763
266;0.8707862999999634;771
267;0.8747987000006106;781
268;0.8777989000000161;790
269;0.8813544000004185;798
270;0.8847314000004189;807
271;0.888943100000688;816
272;0.8927732000001924;828
273;0.8958338000002186;838
274;0.8984125000006316;846
275;0.901701700000558;855
276;0.9046502000001055;865
277;0.9077050000005329;873
278;0.9106599000006099;883
279;0.914415199999894;894
280;0.9178497000002608;904
281;0.9217818000006446;916
282;0.9258084000002782;929
283;0.929565299999922;942
284;0.9326645999999528;953
285;0.9367946000002121;966
286;0.9398440000004484;980
287;0.9437871000000086;992
288;0.9463573000002725;1006
289;0.9494053000007625;1014
290;0.9523941000006744;1027
291;0.9554109999999127;1038
292;0.9587435000003097;1052
293;0.9625974999999016;1065
294;0.9653680999999779;1079
295;0.9689028000002509;1089
296;0.9728144999999131;1105
297;0.9767684000007648;1121
298;0.9794125000007625;1137
299;0.9828739000004134;1147
300;0.9867747000007512;1164
301;0.9907835000003615;1181
302;0.9948076000000583;1199
303;0.9984515000005558;1217
304;1.0018816000001607;1232
305;1.0058011000000988;1249
306;1.0088610000002518;1266
307;1.0126141000000644;1281
308;1.0153955000005226;1297
309;1.0184266000005664;1311
310;1.021455099999912;1327
311;1.024390200000198;1340
312;1.0274066000001767;1355
313;1.0304618000000119;1371
314;1.0335056000003533;1385
315;1.036760900000445;1402
316;1.0396514000003663;1418
317;1.0427134999999907;1432
318;1.0458527000000686;1448
319;1.0484495999999126;1462
320;1.051399400000264;1475
321;1.0543938999999227;1491
322;1.0573954999999842;1507
323;1.0603455000000395;1522
324;1.0633401000004596;1540
325;1.0667470000007597;1555
326;1.070750400000179;1573
327;1.0736557000000175;1594
328;1.0766652000002068;1610
329;1.0804370000005292;1626
330;1.0839166000005207;1644
331;1.0878136000001177;1664
332;1.0917634000006728;1686
333;1.0948211000004449;1706
334;1.0973573000001124;1723
335;1.1009139000007053;1736
336;1.1036602000003768;1756
337;1.1077909000005093;1773
338;1.1117835000004561;1796
339;1.1143959999999424;1816
340;1.117875200000526;1833
341;1.1217839999999342;1853
342;1.125792800000454;1875
343;1.1296021000007386;1898
344;1.132322600000407;1918
345;1.1357160000006843;1934
346;1.1387330000006841;1954
347;1.1429414000003817;1973
348;1.1464253000003737;1997
349;1.1496832000002541;2015
350;1.153946200000064;2037
351;1.156727100000353;2061
352;1.1596567000005962;2079
353;1.1628266000006988;2094
354;1.1654060999999274;2111
355;1.1687074000001303;2129
356;1.1716528000006292;2149
357;1.1747148000004017;2165
358;1.1787096000007296;2185
359;1.1814176000007137;2206
360;1.1848695000007865;2224
361;1.188853100000415;2245
362;1.1927930000001652;2268
363;1.1964625000000524;2292
364;1.1997976000002382;2313
365;1.2037430000000313;2334
366;1.2066692000007606;2357
367;1.2109390000005078;2375
368;1.2144447000000582;2400
369;1.2173892000000706;2418
370;1.220359500000086;2435
371;1.2223741000007067;2452
372;1.2253681000001961;2466
373;1.2271943000005194;2481
374;1.229150600000139;2493
375;1.2313010000007125;2505
376;1.2342434000001958;2521
377;1.236393200000748;2535
378;1.2397653000007267;2549
379;1.2427981999999247;2572
380;1.2456584000001385;2590
381;1.2484770000000935;2605
382;1.2516665000002831;2625
383;1.254554900000585;2644
384;1.2576162000004842;2659
385;1.260707000000366;2679
386;1.2633284000003187;2696
387;1.265473400000701;2709
388;1.2684531000004426;2723
389;1.271585700000287;2741
390;1.274463900000228;2759
391;1.2774919000003138;2777
392;1.2803899000000456;2795
393;1.2835207000007358;2811
394;1.286468600000262;2830
395;1.2895911000005071;2847
396;1.2924720000000889;2865
397;1.2953058000002784;2883
398;1.2973193000007086;2897
399;1.300485600000684;2911
400;1.3036159000002954;2929
401;1.30654770000001;2949
402;1.3096199000001434;2964
403;1.3122425999999905;2982
404;1.3144860000002154;2995
405;1.3176634999999806;3010
406;1.3205674000000727;3029
407;1.323620000000119;3045
408;1.32656550000047;3063
409;1.3293508000006113;3080
410;1.3314366000004156;3094
411;1.3346275000003516;3107
412;1.3375739000002795;3126
413;1.340575700000045;3143
414;1.3436314000000493;3158
415;1.3463045000007696;3177
416;1.3483218999999735;3190
417;1.3514758000001166;3202
418;1.354616100000385;3220
419;1.3575366000004578;3237
420;1.3606101000004855;3254
421;1.3643412999999782;3276
422;1.3674420000006648;3291
423;1.3704501000001983;3309
424;1.3734991999999693;3325
425;1.3766300000006595;3341
426;1.3791579000007914;3358
427;1.381521199999952;3371
428;1.38450180000018;3384
429;1.3875039000004108;3400
430;1.39061860000038;3415
431;1.3935687000002872;3432
432;1.396289500000421;3447
433;1.398311100000683;3460
434;1.4005211000003328;3470
435;1.4034694000001764;3483
436;1.4066120000006777;3498
437;1.4095677000004798;3513
438;1.4121994000006453;3529
439;1.4142976000002818;3541
440;1.4175928000004205;3553
441;1.4205363999999463;3570
442;1.4234882999999172;3583
443;1.426661299999978;3597
444;1.4292089999999007;3614
445;1.4312257999999929;3624
446;1.4340015000007043;3633
447;1.4379268000002412;3650
448;1.4421233000002758;3668
449;1.4461205000006885;3689
450;1.449872800000776;3706
451;1.4539056000003256;3723
452;1.4578986000005898;3742
453;1.4619569000005868;3760
454;1.465646800000286;3776
455;1.4687584000002971;3791
456;1.4730453000001944;3807
457;1.4769531000001734;3824
458;1.4803410000004078;3841
459;1.4837536000004548;3855
460;1.4879362000001493;3868
461;1.4918174000004;3884
462;1.4958647000003111;3900
463;1.498484499999904;3915
464;1.501771799999915;3926
465;1.5059461000000738;3939
466;1.5098109999998996;3955
467;1.5134538000002067;3970
468;1.5168304000007993;3981
469;1.5209695000003194;3995
470;1.5248404000003575;4010
471;1.5290277000003698;4024
472;1.5329066000003877;4037
473;1.5368219000001773;4050
474;1.540921700000581;4064
475;1.5447872000004281;4077
476;1.54747210000005;4088
477;1.5508966000006694;4096
478;1.555005400000482;4107
479;1.558932800000548;4119
480;1.5625794000006863;4131
481;1.5654738000002908;4141
482;1.5687889999999243;4149
483;1.5729621999998926;4158
484;1.5768338000007134;4169
485;1.5804383000004236;4179
486;1.5838170000006357;4187
487;1.5879659000001993;4196
488;1.5918430000001536;4206
489;1.5956306000007316;4214
490;1.5984763000005842;4222
491;1.601908800000274;4228
492;1.6047386000000188;4235
493;1.6077216000003318;4241
494;1.6105968000001667;4246
495;1.6133862000006047;4251
496;1.6169532000003528;4256
497;1.6207635999999184;4263
498;1.623693500000627;4269
499;1.6265827000006539;4274
500;1.6291524000007485;4278
501;1.6313636000004408;4282
502;1.6345761000002312;4285
503;1.6375766999999541;4288
504;1.6406200999999783;4292
505;1.64361370000006;4295
506;1.646221200000582;4297
507;1.649580600000263;4299
508;1.6529121000003215;4301
509;1.6567230999999083;4302
510;1.6596245999999155;4303
511;1.6623090000002776;4304
512;1.6644535000004907;4304
513;1.6675269000006665;4304
514;1.670520900000156;4303
515;1.6735256000001755;4302
516;1.676603900000373;4301
517;1.6793432000004032;4299
518;1.682523299999957;4298
519;1.685547800000677;4295
520;1.6886017000006177;4293
521;1.691620999999941;4290
522;1.6946052000002965;4286
523;1.6974458000004233;4283
524;1.7005253000006633;4279
525;1.7035804000006465;4274
526;1.7065818999999465;4270
527;1.7096258999999918;4265
528;1.7123301000001447;4260
529;1.7156160000004093;4254
530;1.718610300000364;4249
531;1.7216084000001501;4244
532;1.7246086000004652;4238
533;1.727603199999976;4232
534;1.730390200000329;4227
535;1.733609200000501;4221
536;1.7366167000000132;4214
537;1.7395962000000509;4207
538;1.7426154000004317;4200
539;1.745492000000013;4194
540;1.747349100000065;4188
541;1.7494494000002305;4184
542;1.7528429000003598;4176
543;1.7555216999999175;4168
544;1.758562200000597;4162
545;1.7615672000001723;4153
546;1.7632223000000522;4147
547;1.7665722000001551;4141
548;1.769563100000596;4133
549;1.7725647000006575;4124
550;1.775603900000533;4115
551;1.7784795000006852;4107
552;1.7813599000000977;4099
553;1.7846011999999973;4090
554;1.7879219000005833;4079
555;1.7916093000003457;4069
556;1.794552900000781;4057
557;1.7973375000001397;4047
558;1.8005149999999048;4040
559;1.8035687000001417;4029
560;1.8065329999999449;4019
561;1.8095397000006415;4009
562;1.8125741000003472;3999
563;1.8153962000005777;3989
564;1.8185645000003205;3978
565;1.8215214000001652;3967
566;1.824524100000417;3956
567;1.8275281000005634;3945
568;1.8304399000007834;3933
569;1.8335156000002826;3923
570;1.8365206000007674;3910
571;1.8395244000003004;3898
572;1.8425055000006978;3886
573;1.8455664000002798;3874
574;1.8489998000004562;3862
575;1.8526033000007374;3847
576;1.8559564000006503;3831
577;1.8595844000001307;3818
578;1.8634294000003138;3802
579;1.8666376999999557;3787
580;1.869462000000567;3775
581;1.8725098000004436;3763
582;1.8755768000000899;3749
583;1.8783502000005683;3736
584;1.8806247000002259;3725
585;1.8836582000003546;3712
586;1.8866278000004968;3699
587;1.8896386000005805;3685
588;1.8926588000003903;3671
589;1.8956489000001966;3658
590;1.8986381000004258;3644
591;1.9016467000001285;3630
592;1.9046679000002769;3616
593;1.9076404000006733;3602
594;1.9103781000003437;3587
595;1.9136905000004845;3574
596;1.9166816000006293;3559
597;1.9196547000001374;3544
598;1.9226541000007273;3529
599;1.9256782000002204;3515
600;1.928674100000535;3498
601;1.9316099000006943;3486
602;1.9346701000004032;3469
603;1.937661200000548;3454
604;1.9406553000007989;3439
605;1.9435677999999825;3423
606;1.9463480000003983;3408
607;1.9496839000003092;3392
608;1.9526599999999235;3376
609;1.9556619000004503;3359
610;1.958585200000016;3344
611;1.9615665000001172;3329
612;1.9645587000004525;3315
613;1.9676798999998937;3298
614;1.9706417000006695;3278
615;1.9733916000004683;3264
616;1.9766104000000269;3248
617;1.979306400000496;3232
618;1.9825272000007317;3217
619;1.9855500000003303;3200
620;1.9883147000000463;3182
621;1.991549400000622;3167
622;1.9945504000006622;3150
623;1.997551100000237;3132
624;2.000560899999982;3116
625;2.003546599999936;3099
626;2.0065650000005917;3082
627;2.0097199000001638;3065
628;2.012840600000345;3045
629;2.01556840000012;3030
630;2.0184949000004053;3012
631;2.021483000000444;2996
632;2.024795300000733;2979
633;2.027725900000405;2959
634;2.0318661999999676;2938
635;2.0346776000005775;2918
636;2.0375251000004937;2902
637;2.040486000000783;2885
638;2.0435034000001906;2869
639;2.046411199999966;2851
640;2.049564700000701;2834
641;2.052684300000692;2816
642;2.0556876999999076;2797
643;2.0585650000002715;2780
644;2.0613625000005413;2763
645;2.06468600000062;2747
646;2.0675690000007307;2724
647;2.0706256000003123;2707
648;2.073724100000618;2689
649;2.076520200000232;2672
650;2.0793680000006134;2655
651;2.0828981000004205;2638
652;2.08691220000037;2612
653;2.091018300000542;2589
654;2.095173800000339;2563
655;2.09899840000071;2539
656;2.103145900000527;2516
657;2.107877400000689;2485
658;2.1120662000002994;2462
659;2.1162043000003905;2440
660;2.1202138000007835;2416
661;2.1240418000006684;2390
662;2.1281112000006033;2369
663;2.132288000000699;2345
664;2.136142700000164;2319
665;2.139712000000145;2294
666;2.1427732000001924;2275
667;2.146901200000684;2257
668;2.1511857000004966;2233
669;2.1555637999999817;2207
670;2.159018900000774;2182
671;2.1630246000004263;2161
672;2.167059000000336;2137
673;2.1711113000001205;2113
674;2.1751938000006703;2090
675;2.17913260000023;2066
676;2.183068300000741;2043
677;2.1868388000002597;2019
678;2.1911487000006673;1997
679;2.1952200000005178;1972
680;2.1991406000006464;1949
681;2.2030352000001585;1927
682;2.207217400000445;1904
683;2.211141900000257;1881
684;2.2150844000007055;1860
685;2.2189602000007653;1838
686;2.2231258000001617;1816
687;2.2272154000002047;1793
688;2.230770300000586;1770
689;2.2338272000006327;1751
690;2.2381765000000087;1733
691;2.242284400000244;1708
692;2.2461975000005623;1685
693;2.250002400000085;1664
694;2.2537795000007463;1640
695;2.2581629000005705;1621
696;2.2622166000001016;1599
697;2.265840100000787;1577
698;2.2702165999999124;1557
699;2.2741485000005923;1534
700;2.2782285000002958;1514
701;2.2815981000003376;1494
702;2.2845874000004187;1477
703;2.2881106000004365;1462
704;2.29182690000016;1443
705;2.2956475000000864;1424
706;2.2990859999999884;1407
707;2.3029196000006777;1387
708;2.306753800000479;1369
709;2.3096929000003;1351
710;2.3135617000007187;1336
711;2.3166755000002013;1318
712;2.3198206000006394;1305
713;2.322677900000599;1291
714;2.326858400000674;1275
715;2.3306977000002007;1257
716;2.335194700000102;1240
717;2.3390007000007245;1220
718;2.34306960000049;1203
719;2.346678200000497;1185
720;2.349602799999957;1171
721;2.3530375000000276;1157
722;2.3570047000002887;1142
