;time;amplitude
0;0.005093900000247231;2471
1;0.010387899999841466;2470
2;0.015709899999819754;2469
3;0.02147530000002007;2468
4;0.026286700000127894;2467
5;0.03130260000034468;2466
6;0.03635070000018459;2466
7;0.0414163000004919;2465
8;0.04646540000067034;2464
9;0.05145340000035503;2463
10;0.055850000000646105;2463
11;0.06154400000013993;2462
12;0.0664612999999008;2461
13;0.07143940000059956;2460
14;0.0762179000003016;2460
15;0.08120270000017626;2458
16;0.08631160000004456;2458
17;0.09130520000053366;2457
18;0.09679349999987608;2455
19;0.10129190000043309;2454
20;0.10573569999996835;2453
21;0.11005370000020775;2452
22;0.11397300000044197;2452
23;0.11817650000011781;2451
24;0.12315450000005512;2450
25;0.12700740000036603;2449
26;0.13119319999987056;2448
27;0.1362890000000334;2447
28;0.14024140000037733;2447
29;0.14527050000015151;2446
30;0.14877740000065387;2444
31;0.15312570000060077;2444
32;0.1577731000006679;2443
33;0.16215079999983573;2442
34;0.16711790000044857;2441
35;0.17157050000059826;2440
36;0.1761627000005319;2440
37;0.18011470000055851;2439
38;0.18399890000000596;2438
39;0.1886039000000892;2437
40;0.1931720000002315;2436
41;0.1981340000002092;2435
42;0.203113100000337;2435
43;0.20666650000021036;2434
44;0.2111205000001064;2433
45;0.21612030000051163;2432
46;0.2200726000000941;2431
47;0.2240601000003153;2431
48;0.22803990000011254;2430
49;0.232093900000109;2429
50;0.23571570000058273;2429
51;0.2401465000002645;2428
52;0.24513200000001234;2427
53;0.25016820000018924;2426
54;0.25473890000012034;2425
55;0.25915290000011737;2425
56;0.2641250000006039;2424
57;0.26768170000013924;2423
58;0.2715619999999035;2422
59;0.27603369999997085;2422
60;0.27982040000006236;2421
61;0.2841625999999451;2420
62;0.288556299999982;2419
63;0.2931523000006564;2418
64;0.2981429000001299;2417
65;0.303154799999902;2416
66;0.3069571000005453;2415
67;0.31112620000021707;2415
68;0.31613540000034845;2413
69;0.32106449999992037;2413
70;0.32609230000070966;2412
71;0.3303927000006297;2411
72;0.3336575000002995;2410
73;0.3377627999998367;2409
74;0.3421518000004653;2408
75;0.3459917000000132;2407
76;0.34923260000050504;2407
77;0.35238920000028884;2406
78;0.3552917000006346;2405
79;0.35971800000061194;2405
80;0.36341470000024856;2404
81;0.3664280000002691;2404
82;0.36965670000063255;2403
83;0.37266450000061013;2403
84;0.37675560000025143;2402
85;0.3808367999999973;2401
86;0.3848228000006202;2400
87;0.3884676000006948;2399
88;0.39189380000061647;2399
89;0.39585150000038993;2398
90;0.3999186999999438;2397
91;0.4037613999998939;2396
92;0.407964300000458;2395
93;0.4118973000004189;2394
94;0.41588140000021667;2393
95;0.419798300000366;2393
96;0.42249510000056034;2391
97;0.4257243000001836;2390
98;0.42993770000066434;2390
99;0.43376160000025266;2389
100;0.4363693000004787;2389
101;0.439886000000115;2388
102;0.44390480000038224;2387
103;0.44785720000072615;2386
104;0.4515128000002733;2385
105;0.45580120000067836;2384
106;0.4598740000001271;2384
107;0.46386660000007396;2382
108;0.46782680000069377;2381
109;0.4713639999999941;2380
110;0.47487960000034946;2380
111;0.47893999999996595;2379
112;0.48253090000071097;2378
113;0.4869873000006919;2378
114;0.4908619000007093;2377
115;0.4948506999999154;2376
116;0.49875780000002123;2375
117;0.501651700000366;2374
118;0.5043630000000121;2373
119;0.5078221000003396;2373
120;0.5118422000005012;2372
121;0.5158367000003636;2371
122;0.51984210000046;2370
123;0.5238749000000098;2369
124;0.5278562000003149;2369
125;0.5318324999998367;2368
126;0.5358810000006997;2367
127;0.5398657000005187;2366
128;0.5438647999999375;2365
129;0.5473891000001458;2365
130;0.5503468000006251;2364
131;0.5537052999998195;2363
132;0.5567951000002722;2363
133;0.5608330000004571;2363
134;0.564834100000553;2362
135;0.5688521000001856;2361
136;0.5728445000004285;2360
137;0.5767845000000307;2359
138;0.5796405999999479;2359
139;0.58258990000013;2358
140;0.5857986999999412;2358
141;0.5898599000001923;2357
142;0.593826799999988;2357
143;0.5977102000006198;2356
144;0.6018717000006291;2355
145;0.6058154000002105;2354
146;0.6093848000000435;2354
147;0.6123370000004797;2354
148;0.6158181000000695;2353
149;0.6198528000004444;2352
150;0.6226501999999527;2352
151;0.6257891000004747;2351
152;0.6298365000002377;2351
153;0.6338486000004195;2350
154;0.6374486000004254;2350
155;0.640388200000416;2349
156;0.6438434000001507;2349
157;0.6476861000001009;2348
158;0.6518666000001758;2348
159;0.6556186000007074;2347
160;0.658811300000707;2347
161;0.6628417000001718;2346
162;0.6668518000005861;2345
163;0.6707086000005802;2345
164;0.6748670000006314;2344
165;0.6788621000005151;2344
166;0.6828605000000607;2344
167;0.6868159000005107;2343
168;0.6897883000001457;2343
169;0.6938348000003316;2343
170;0.6976776000001337;2342
171;0.7018705999998929;2342
172;0.7043118000001414;2341
173;0.707604000000174;2341
174;0.7118553999998767;2341
175;0.715851200000543;2340
176;0.7198054999998931;2339
177;0.723880200000167;2339
178;0.7278599000001122;2338
179;0.7318666000001031;2338
180;0.7358701000002839;2337
181;0.7385321000001568;2337
182;0.7416471000005913;2337
183;0.7458683000004385;2337
184;0.749874600000112;2336
185;0.7538806000002296;2335
186;0.7578598999998576;2335
187;0.7618515000003754;2335
188;0.7656342000000222;2334
189;0.7688069000005271;2334
190;0.7728537000002689;2333
191;0.7768564000007245;2333
192;0.7809852999998839;2333
193;0.7848068000002968;2332
194;0.7887901000003694;2332
195;0.7928713999999673;2332
196;0.7968131000006906;2331
197;0.8008072000002358;2331
198;0.8044115000002421;2331
199;0.8088643999999476;2331
200;0.8126509000003352;2330
201;0.8157953999998426;2330
202;0.8198447000004307;2329
203;0.8225920000004407;2329
204;0.8257849000001443;2329
205;0.8298632000005455;2329
206;0.8338543999998365;2329
207;0.8374461000003066;2328
208;0.840797300000304;2328
209;0.8447961000001669;2328
210;0.8476617000005717;2328
211;0.8505762000004324;2327
212;0.8545031000003291;2327
213;0.8590211999999156;2327
214;0.8623790999999983;2327
215;0.8658309000002191;2327
216;0.8698422000006758;2327
217;0.8737196000001859;2327
218;0.8773894000005384;2327
219;0.8807418000005782;2326
220;0.8847998000001098;2327
221;0.8884391000001415;2327
222;0.8916847999998936;2326
223;0.8956266000004689;2327
224;0.8997380000000703;2327
225;0.9037201999999525;2327
226;0.906787599999916;2327
227;0.9108704999998736;2327
228;0.9148482999999032;2326
229;0.9188580000000002;2327
230;0.9223871000003783;2327
231;0.9257248000003528;2327
232;0.9298752000004242;2327
233;0.9335860999999568;2327
234;0.9374291000003723;2327
235;0.9407926000003499;2327
236;0.9448667000006026;2327
237;0.948852500000612;2327
238;0.9528447000002416;2327
239;0.9556393000002572;2327
240;0.9598835000006147;2327
241;0.963846999999987;2327
242;0.9678571000004013;2327
243;0.971415099999831;2326
244;0.9758710000005522;2326
245;0.9798426000006657;2326
246;0.9838702000006379;2326
247;0.9874616000006426;2326
248;0.9908144999999422;2326
249;0.9948480000002746;2326
250;0.9988368000003902;2326
251;1.0013380999998844;2326
252;1.0042902000004688;2326
253;1.0073477000005369;2326
254;1.0103474000006827;2326
255;1.0132938000006106;2326
256;1.0164246000003914;2326
257;1.0197613000000274;2326
258;1.0227617999998984;2326
259;1.026807799999915;2326
260;1.03081420000035;2326
261;1.0348109000005934;2326
262;1.038752000000386;2327
263;1.042810200000531;2326
264;1.0468346000006932;2327
265;1.0508122999999614;2326
266;1.0543140999998286;2326
267;1.0577609000001758;2327
268;1.0618140000005951;2327
269;1.065807400000267;2327
270;1.0698255000006611;2327
271;1.0727740000002086;2327
272;1.0768151000002035;2327
273;1.0803286999998818;2327
274;1.0837520000004588;2327
275;1.0873405000002094;2327
276;1.0907383000003392;2327
277;1.094351600000664;2327
278;1.0974417000006724;2327
279;1.1005439000000479;2327
280;1.1035771000006207;2327
281;1.1075049999999464;2327
282;1.1105688000006921;2327
283;1.113461200000529;2328
284;1.1165196000001743;2328
285;1.1195203000006586;2328
286;1.1225294000005306;2328
287;1.1252971000003527;2328
288;1.128504199999952;2329
289;1.1315283000003546;2329
290;1.1345138000006045;2329
291;1.1372015000006286;2329
292;1.140556899999865;2329
293;1.1435187000006408;2329
294;1.146514600000046;2330
295;1.149514700000509;2330
296;1.1525307000001703;2330
297;1.155518800000209;2330
298;1.1585187000000587;2330
299;1.1615212000006068;2330
300;1.1645072999999684;2330
301;1.1675169999998616;2330
302;1.1702404000006936;2330
303;1.1735204000005979;2331
304;1.176519300000109;2331
305;1.1795173000000432;2330
306;1.1824955000001864;2331
307;1.1855223000002297;2330
308;1.1883785999998508;2330
309;1.191495500000201;2330
310;1.194502199999988;2330
311;1.1973152000000482;2331
312;1.2004981999998563;2331
313;1.203407099999822;2331
314;1.2065142999999807;2331
315;1.2095008000005691;2331
316;1.2125141000005897;2331
317;1.2155167000000802;2331
318;1.2185242000005019;2331
319;1.2215206999999282;2331
320;1.2245143999998618;2331
321;1.2275135999998383;2331
322;1.2305163999999422;2331
323;1.2335172000002785;2331
324;1.236473500000102;2331
325;1.2395133999998507;2331
326;1.2425170000005892;2331
327;1.2455220000001646;2331
328;1.248515000000225;2331
329;1.251517600000625;2331
330;1.2543779000006907;2331
331;1.2575007000004916;2331
332;1.2605145000006814;2332
333;1.2635196000001088;2332
334;1.266193899999962;2332
335;1.2695063999999547;2332
336;1.2725223000006736;2332
337;1.2755225000000792;2332
338;1.278525300000183;2332
339;1.2814699000000473;2333
340;1.2845170999999027;2333
341;1.28720980000071;2333
342;1.2905169000005117;2333
343;1.2935152999998536;2332
344;1.296498600000632;2332
345;1.3003867000006721;2333
346;1.3035414000005403;2333
347;1.3065157000000909;2333
348;1.309515800000554;2333
349;1.3125119000005725;2333
350;1.3152618000003713;2333
351;1.3185178000003361;2333
352;1.3215245000001232;2333
353;1.3245151000000988;2334
354;1.3275217000000339;2334
355;1.3305226000002222;2334
356;1.3335336000000098;2334
357;1.3365241999999853;2334
358;1.3395172999998977;2334
359;1.3425193000002764;2334
360;1.3451562999998714;2334
361;1.3471857000004093;2334
362;1.349272500000552;2334
363;1.3525242000005164;2333
364;1.3555077999999412;2333
365;1.3585164000005534;2334
366;1.3612198999999237;2334
367;1.364494100000229;2334
368;1.3674921000001632;2334
369;1.3703850000001694;2334
370;1.3738597000001391;2334
371;1.3777284000007057;2335
372;1.3817266000005475;2335
373;1.3842646000002787;2335
374;1.3872833000004903;2335
375;1.3903730000001815;2335
376;1.3935732999998436;2336
377;1.3966865000002144;2336
378;1.4006186000005982;2336
379;1.4043028000005506;2336
380;1.4073659000005136;2336
381;1.4103681000005963;2336
382;1.4133523999998943;2336
383;1.4163584000007177;2336
384;1.4192891000002419;2336
385;1.4224381000003632;2336
386;1.4255340999998225;2337
387;1.4285417000000962;2337
388;1.4315377000002627;2337
389;1.4345714999999473;2337
390;1.4373144000001048;2337
391;1.4406910000006974;2337
392;1.4448643000005177;2337
393;1.4488605000005919;2337
394;1.452857700000095;2337
395;1.4571419000003516;2337
396;1.461966200000461;2337
397;1.4659503000002587;2337
398;1.4697542000003523;2337
399;1.4740185999999085;2337
400;1.4781299000005674;2338
401;1.482113400000344;2338
402;1.4870700000001307;2338
403;1.4911152000004222;2338
404;1.4961595000004309;2339
405;1.501133700000537;2338
406;1.504509400000643;2338
407;1.50763520000055;2339
408;1.5121619000001374;2339
409;1.517058200000065;2340
410;1.520703300000605;2340
411;1.525068700000702;2341
412;1.5290453000006892;2340
413;1.5327752000002874;2340
414;1.5372172000006685;2340
415;1.5410539000004064;2340
416;1.5450497000001633;2340
417;1.54856110000037;2340
418;1.5515862000002016;2340
419;1.5559143999998923;2340
420;1.5601205000002665;2340
421;1.5650555000001987;2340
422;1.569119600000704;2340
423;1.5731143000002703;2341
424;1.5771185000003243;2341
425;1.5821137000002636;2341
426;1.586101700000654;2341
427;1.5901207000006252;2341
428;1.5936411000002408;2342
429;1.5967436000000816;2342
430;1.6011300999998639;2342
431;1.6046307000005982;2343
432;1.6091507000001002;2343
433;1.6136497000006784;2344
434;1.6165396000005785;2344
435;1.6194212000000334;2344
436;1.6228384000005462;2345
437;1.6269160000001648;2345
438;1.630883000000722;2346
439;1.63487620000069;2346
440;1.6387405000004946;2346
441;1.642825900000389;2346
442;1.6468509000005724;2346
443;1.6508389000000534;2346
444;1.6545358000003034;2346
445;1.658515900000566;2347
446;1.6617753000000448;2347
447;1.6645235000005414;2347
448;1.6675012000005154;2347
449;1.6704034000003958;2347
450;1.6734939000007216;2347
451;1.676523900000575;2347
452;1.6794880000006742;2348
453;1.682528700000148;2348
454;1.6855159000006097;2348
455;1.68852650000008;2348
456;1.691530099999909;2348
457;1.694484900000134;2349
458;1.6975474999999278;2349
459;1.7005236000004516;2349
460;1.7044085000006817;2349
461;1.707527200000186;2350
462;1.7105295999999726;2350
463;1.7134931999999026;2350
464;1.71633810000003;2351
465;1.7193463000003248;2351
466;1.7223189000005732;2352
467;1.7253138000005492;2352
468;1.7287955000001602;2352
469;1.7327781000003597;2353
470;1.7367490000006;2353
471;1.7396292000003086;2353
472;1.74247110000033;2354
473;1.7454633000006652;2354
474;1.7484567000001334;2355
475;1.7513403000002654;2355
476;1.7541398000003028;2355
477;1.757314999999835;2355
478;1.7607834000000366;2355
479;1.7646727999999712;2356
480;1.7678107000001546;2356
481;1.7716243000004397;2356
482;1.7744620000003124;2357
483;1.7775618000005124;2357
484;1.7805896999998367;2357
485;1.7836474000005182;2358
486;1.7867229000003135;2358
487;1.789525400000457;2358
488;1.792511700000432;2358
489;1.7953200000001743;2359
490;1.7983460000004925;2359
491;1.8013630000004923;2359
492;1.8041247999999541;2359
493;1.80632180000066;2360
494;1.8092991000003167;2360
495;1.8123026000002938;2360
496;1.8154087000002619;2360
497;1.8199820999998337;2361
498;1.8227513000001636;2362
499;1.8268014000004769;2362
500;1.8305976000001465;2362
501;1.8348089000000982;2363
502;1.838786700000128;2363
503;1.8427919000005204;2364
504;1.8462693999999829;2364
505;1.8498141999998552;2364
506;1.8537113000002137;2365
507;1.8567478000004485;2365
508;1.8608030000004874;2365
509;1.8636014000003343;2366
510;1.8667654999999286;2366
511;1.8697938000004797;2366
512;1.872473500000524;2367
513;1.8764965999998822;2367
514;1.8804989000000205;2368
515;1.8844822000000931;2368
516;1.8888206000001446;2368
517;1.8928020000003016;2368
518;1.8968178000004627;2368
519;1.900834400000349;2369
520;1.9043164000004253;2370
521;1.9077610000003915;2370
522;1.911817300000621;2371
523;1.9158151000001453;2371
524;1.91930610000054;2372
525;1.9228180999998585;2373
526;1.926615600000332;2373
527;1.9305929000001925;2374
528;1.934288899999956;2375
529;1.9373034000000189;2375
530;1.940847400000166;2376
531;1.9444567000000461;2377
532;1.9474629000005734;2377
533;1.9504437000005055;2377
534;1.953476700000465;2378
535;1.9563572000006388;2379
536;1.959358500000235;2379
537;1.962318800000503;2379
538;1.96530520000033;2379
539;1.9683484000006501;2380
540;1.9712079000000813;2380
541;1.974346400000286;2381
542;1.9773079000005964;2381
543;1.9808006000002933;2381
544;1.9847886000006838;2382
545;1.987195900000188;2383
546;1.9903190000004543;2383
547;1.9933267000005799;2383
548;1.9963217000004079;2383
549;1.9992216999999073;2384
550;2.0023291000006793;2384
551;2.005921699999817;2385
552;2.0098633000006885;2385
553;2.013882900000681;2386
554;2.017427800000405;2386
555;2.020270800000617;2387
556;2.0237366000001202;2388
557;2.0278066000000763;2388
558;2.03186740000001;2389
559;2.0358837000003405;2389
560;2.038890900000297;2390
561;2.0427927000000636;2391
562;2.0467728000003262;2391
563;2.0507891000006566;2392
564;2.0544063000006645;2393
565;2.057577300000048;2393
566;2.0605687000006583;2394
567;2.0635605000006763;2395
568;2.066584000000148;2395
569;2.0693410000003496;2395
570;2.072308100000555;2396
571;2.0758277000004455;2396
572;2.079754600000342;2397
573;2.082799000000705;2397
574;2.086832300000424;2398
575;2.090785600000345;2398
576;2.094776100000672;2398
577;2.098782900000515;2399
578;2.1027970000004643;2400
579;2.105779100000291;2400
580;2.109812600000623;2400
581;2.1138016000004427;2401
582;2.1178012999998828;2401
583;2.121755199999825;2402
584;2.125793799999883;2403
585;2.129319800000303;2403
586;2.1325007000004916;2404
587;2.1355092000003424;2404
588;2.138509299999896;2405
589;2.1415046000001894;2405
590;2.1445026999999754;2405
591;2.1475561000006564;2405
592;2.1505285000002914;2406
593;2.1533617000004597;2406
594;2.1565215999999054;2407
595;2.1595274999999674;2407
596;2.1625276000004305;2407
597;2.165530000000217;2408
598;2.168344800000341;2408
599;2.1713390000004438;2408
600;2.174135600000227;2409
601;2.1779647000003024;2409
602;2.1819039000001794;2410
603;2.185781500000303;2410
604;2.1887885000005554;2411
605;2.191207700000632;2411
606;2.1947586000005685;2412
607;2.198590900000454;2412
608;2.2029357999999775;2413
609;2.2056319000002986;2413
610;2.2097930999998425;2414
611;2.213790400000107;2414
612;2.2177872000002026;2415
613;2.221512000000075;2415
614;2.2245898000001034;2416
615;2.2275696000006064;2417
616;2.2305648000001383;2417
617;2.233590499999991;2418
618;2.2368468000004214;2418
619;2.2395492000005106;2419
620;2.2425100000000384;2419
621;2.2455214000001433;2419
622;2.248362100000122;2420
623;2.2513720000006288;2420
624;2.254302600000301;2421
625;2.257319700000153;2421
626;2.2603181000004042;2421
627;2.263944299999821;2422
628;2.267951400000129;2422
629;2.271790200000396;2422
630;2.2758162000000084;2423
631;2.279788599999847;2424
632;2.283878100000038;2424
633;2.2872568000002502;2424
634;2.290729000000283;2424
635;2.2937190000002374;2425
636;2.2965770000000703;2425
637;2.2995747000004485;2425
638;2.3025280000001658;2426
639;2.305540600000313;2426
640;2.308501100000285;2427
641;2.3113204999999653;2427
642;2.314379200000076;2428
643;2.3173725000006016;2428
644;2.3217579000001933;2429
645;2.326059300000452;2429
646;2.331196400000408;2430
647;2.334824800000206;2431
648;2.338879800000541;2431
649;2.344397700000627;2432
650;2.3488311000000976;2433
651;2.353341800000635;2433
652;2.358357000000069;2434
653;2.362733200000548;2435
654;2.36533000000054;2436
655;2.368159100000412;2436
656;2.370164400000249;2437
657;2.3726494000002276;2437
658;2.3757744000004095;2437
659;2.3787922999999864;2437
660;2.381578999999874;2437
661;2.3845562000005884;2438
662;2.387293700000555;2438
663;2.390524500000538;2438
664;2.39355870000054;2439
665;2.39650359999996;2440
666;2.3995801999999458;2440
667;2.402225499999986;2440
668;2.405546300000424;2441
669;2.408552700000655;2441
670;2.411530400000629;2442
671;2.414536300000691;2442
672;2.41741490000004;2443
673;2.4201999000006253;2443
674;2.4235654000003706;2444
675;2.4265376000003016;2444
676;2.429534599999897;2445
677;2.4325293000001693;2445
678;2.4355314000004;2445
679;2.438560200000211;2446
680;2.441547200000059;2446
681;2.4445353999999497;2446
682;2.4475375000001804;2447
683;2.4502244000004794;2448
684;2.453198799999882;2448
685;2.455584799999997;2449
686;2.4585768000006283;2449
687;2.46155490000001;2449
688;2.464548700000705;2450
689;2.467549200000576;2450
690;2.470126600000185;2450
691;2.4733384000001024;2451
692;2.4764097000006586;2452
693;2.4793571999998676;2452
694;2.4823848000005455;2453
695;2.48536360000071;2453
696;2.488307800000257;2453
697;2.491520500000661;2454
698;2.494536300000618;2454
699;2.4975494999998773;2454
700;2.5008732000005693;2454
701;2.5043556999999055;2455
702;2.5076770000005126;2455
703;2.5108571000000666;2455
704;2.514924200000678;2456
705;2.5188944999999876;2457
706;2.5228547000006074;2457
707;2.5269509999998263;2458
708;2.530934100000195;2458
709;2.5349260000002687;2459
710;2.5372746000002735;2460
711;2.5408399000007194;2460
712;2.5448907999998482;2461
713;2.5489274000001387;2461
714;2.5524134000006597;2462
715;2.555280700000367;2462
716;2.5582226000005903;2463
717;2.5602976999998646;2463
718;2.5631116000004113;2463
719;2.5651137000004383;2464
720;2.567144300000109;2464
721;2.569321900000432;2465
