;time;amplitude
0;0.004938000000038301;2385
1;0.009189500000502449;2387
2;0.014376799999809009;2387
3;0.018812000000252738;2389
4;0.023424900000463822;2390
5;0.027944100000240724;2392
6;0.032292599999891536;2393
7;0.037207600000328966;2395
8;0.04227179999998043;2396
9;0.04594939999969938;2398
10;0.05002190000050177;2399
11;0.05403360000036628;2401
12;0.05801849999988917;2402
13;0.061617200000000594;2403
14;0.06604340000012598;2404
15;0.07001270000000659;2406
16;0.07402710000042134;2408
17;0.07796800000051007;2409
18;0.0820333000001483;2410
19;0.08603510000011738;2412
20;0.08982240000023012;2413
21;0.09352450000005774;2414
22;0.0969359999999142;2415
23;0.10092770000028395;2416
24;0.1047551999999996;2417
25;0.10786800000005314;2418
26;0.111934100000326;2419
27;0.11584469999979774;2420
28;0.11997520000022632;2421
29;0.1239477999997689;2422
30;0.1275711999996929;2424
31;0.13083310000001802;2425
32;0.13497129999996105;2426
33;0.13998540000011417;2427
34;0.1435300000002826;2429
35;0.1480690999997023;2430
36;0.15209190000041417;2431
37;0.1560882000003403;2432
38;0.1595093000005363;2434
39;0.16304500000023836;2435
40;0.1670984000002136;2436
41;0.17154389999996056;2438
42;0.1749296999996659;2439
43;0.1790793999998641;2440
44;0.18404600000030769;2441
45;0.1879054000000906;2443
46;0.19192159999965952;2444
47;0.19597239999984595;2445
48;0.19987709999986691;2446
49;0.20399230000020907;2448
50;0.20790320000014617;2450
51;0.21195799999986775;2451
52;0.21559330000036425;2452
53;0.2184415000001536;2453
54;0.22194740000031743;2454
55;0.2255262999997285;2456
56;0.22891570000047068;2457
57;0.23292480000054638;2458
58;0.23702380000031553;2460
59;0.24102049999964947;2461
60;0.24498959999982617;2462
61;0.2489891000004718;2464
62;0.2530038000004424;2465
63;0.25701589999971475;2467
64;0.26055950000045414;2468
65;0.26400569999987056;2469
66;0.26800100000036764;2470
67;0.27201680000052875;2472
68;0.27609449999999924;2473
69;0.28055459999995946;2474
70;0.2837786000000051;2476
71;0.2879308999999921;2477
72;0.29168920000029175;2478
73;0.29438219999974535;2479
74;0.29743150000012974;2480
75;0.30091410000022734;2481
76;0.3049548999997569;2482
77;0.3087698999997883;2484
78;0.3118641999999454;2484
79;0.3158691999997245;2486
80;0.31981439999981376;2487
81;0.3238357000000178;2489
82;0.32779430000027787;2490
83;0.3307258000004367;2491
84;0.33370579999973415;2492
85;0.33677129999978206;2493
86;0.3405788999998549;2495
87;0.343305500000497;2496
88;0.3463443999999072;2496
89;0.3497568000002502;2497
90;0.353829599999699;2498
91;0.3578302000005351;2499
92;0.3614436999996542;2501
93;0.36470980000012787;2502
94;0.3675806000001103;2503
95;0.3705670999997892;2504
96;0.37362320000011096;2504
97;0.3762562000001708;2505
98;0.3793703999999707;2506
99;0.38236760000017966;2507
100;0.3853540999998586;2508
101;0.38839350000034756;2509
102;0.3913671999998769;2510
103;0.3943661000002976;2511
104;0.39752860000044166;2512
105;0.4005345000005036;2512
106;0.4037402000003567;2513
107;0.40780199999971956;2514
108;0.41035699999974895;2515
109;0.41448209999998653;2516
110;0.4176948000003904;2517
111;0.4207585000003746;2518
112;0.4248352000004161;2519
113;0.4277841000002809;2520
114;0.43184300000029907;2521
115;0.4358400999999503;2522
116;0.43984120000004623;2523
117;0.4433515000000625;2524
118;0.44674880000002304;2525
119;0.45083919999979116;2525
120;0.4548402000000351;2526
121;0.45885139999973035;2527
122;0.4617533000000549;2528
123;0.46584679999978107;2529
124;0.4698240999996415;2530
125;0.4735772000003635;2531
126;0.4763788999998724;2532
127;0.4797998000003645;2533
128;0.48383780000040133;2534
129;0.4877068000005238;2534
130;0.4906991999996535;2535
131;0.4947068000001309;2536
132;0.49886979999973846;2537
133;0.5028111999999965;2538
134;0.506358700000419;2539
135;0.5093555000003107;2540
136;0.5127990000000864;2541
137;0.5167106999997486;2541
138;0.5204865000005157;2542
139;0.5236751000002187;2543
140;0.5274342000002434;2544
141;0.53060430000005;2545
142;0.5345028000001548;2546
143;0.5385314000004655;2547
144;0.5417341000002125;2548
145;0.5442875999997341;2548
146;0.5477545000003374;2549
147;0.5518355000003794;2549
148;0.5558423000002222;2550
149;0.5594086000000971;2550
150;0.5638434000002235;2551
151;0.567829200000233;2552
152;0.5718309000003501;2553
153;0.5758844000001773;2554
154;0.5798297999999704;2554
155;0.5838340000000244;2555
156;0.5876663999997618;2555
157;0.5918609000000288;2556
158;0.5946149999999761;2557
159;0.5977307000002838;2557
160;0.6018326000003071;2557
161;0.6053791000003912;2558
162;0.6088209999998071;2559
163;0.6117738000002646;2559
164;0.6158360999997967;2560
165;0.6198432999999568;2560
166;0.6233381000001827;2561
167;0.626300099999753;2561
168;0.6294989999996687;2561
169;0.6324955000000045;2562
170;0.6354972999997699;2562
171;0.6385405000000901;2562
172;0.6415186000003814;2563
173;0.6445325000004232;2563
174;0.6475289999998495;2564
175;0.650521800000206;2564
176;0.6535174999999072;2565
177;0.656520399999863;2565
178;0.6592434000003777;2565
179;0.6625134000005346;2565
180;0.6655295999998998;2566
181;0.6685230000002775;2566
182;0.6715176999996402;2566
183;0.6745210999997653;2566
184;0.6775237000001653;2567
185;0.6805202000005011;2567
186;0.6833569000000352;2567
187;0.6864882999998372;2567
188;0.6895002999999633;2568
189;0.6924293000001853;2568
190;0.6954983000005086;2568
191;0.6984730000003765;2568
192;0.7015174999996816;2569
193;0.7045262999999977;2570
194;0.7075181000000157;2570
195;0.7103779999997641;2571
196;0.7135094000004756;2571
197;0.7165247000002637;2571
198;0.7194958999998562;2571
199;0.7224896999996417;2570
200;0.725501500000064;2570
201;0.7284989999998288;2571
202;0.7315214000000196;2571
203;0.7345236999999543;2571
204;0.737375400000019;2572
205;0.7404890999996496;2572
206;0.7433854999999312;2572
207;0.7461069999999381;2572
208;0.7494910000004893;2572
209;0.7524896000004446;2572
210;0.7554910999997446;2573
211;0.7584919000000809;2573
212;0.7614487000000736;2572
213;0.7642759000000297;2573
214;0.7672531999996863;2573
215;0.7692366999999649;2573
216;0.7712382999998226;2573
217;0.7734972999996899;2573
218;0.7761637000003248;2573
219;0.7795117000005121;2573
220;0.7824886999997034;2572
221;0.785510599999725;2573
222;0.7885231000000203;2573
223;0.7915245000003779;2573
224;0.7945273000004818;2573
225;0.7975036999996519;2573
226;0.8005130999999892;2573
227;0.803498899999795;2573
228;0.806510000000344;2573
229;0.8092563999998674;2573
230;0.8124927999997453;2572
231;0.8155071999999564;2572
232;0.818497600000228;2572
233;0.8214909999996962;2572
234;0.8244710999997551;2572
235;0.8275026000001162;2572
236;0.8305120000004536;2572
237;0.833497499999794;2572
238;0.8365015999997922;2571
239;0.8395115000002988;2572
240;0.8423745000000054;2571
241;0.8454991999997219;2571
242;0.8484914000000572;2571
243;0.8515050000005431;2571
244;0.854500200000075;2571
245;0.8571871000003739;2571
246;0.8592293000001519;2571
247;0.8624965999997585;2571
248;0.8654944999998406;2570
249;0.8684801999997944;2570
250;0.871339700000135;2571
251;0.8745016000002579;2570
252;0.8773708999997325;2570
253;0.8803269;2570
254;0.8833223999999973;2570
255;0.8863621999998941;2570
256;0.8893293000000995;2570
257;0.8923641999999745;2570
258;0.8954442000003837;2570
259;0.8984384000004866;2570
260;0.9014562000002115;2569
261;0.9044604000000618;2569
262;0.9074411999999938;2568
263;0.9103943000000072;2568
264;0.913530400000127;2568
265;0.9165229999998701;2568
266;0.9194974000001821;2568
267;0.9225176999998439;2568
268;0.9255344000002879;2567
269;0.9285264000000097;2567
270;0.9315093000004708;2566
271;0.9345155999999406;2566
272;0.9375224000004891;2566
273;0.9404942000001029;2566
274;0.9434983000001012;2565
275;0.9465339999997013;2565
276;0.9494931999997789;2565
277;0.9525068000002648;2564
278;0.9555239000001166;2564
279;0.958548300000075;2564
280;0.9615307000003668;2563
281;0.9645111999998335;2563
282;0.9675255000001926;2562
283;0.9704824999998891;2562
284;0.9735200000004625;2562
285;0.9762861999997767;2561
286;0.9795177000005424;2561
287;0.9825132000005397;2561
288;0.9855092999996486;2560
289;0.9885236000000077;2560
290;0.991515700000491;2560
291;0.9945183999998335;2559
292;0.9975242000000435;2559
293;1.000519400000485;2558
294;1.0033439999997427;2557
295;1.0065267999998468;2557
296;1.0092811000004076;2556
297;1.0125284000005195;2556
298;1.0155273000000307;2556
299;1.0185137999997096;2556
300;1.0215872999997373;2556
301;1.02451579999979;2556
302;1.0274609999996756;2555
303;1.0306749000001219;2555
304;1.0338259000000107;2555
305;1.0374167999998463;2554
306;1.0405762000000323;2554
307;1.044601600000533;2553
308;1.0474961999998413;2553
309;1.0504900000005364;2553
310;1.0534875000003012;2552
311;1.0563375000001543;2552
312;1.0592753000000812;2551
313;1.0628687999997055;2551
314;1.0667498000002524;2550
315;1.0705890999997791;2550
316;1.074282900000071;2549
317;1.0775252000003093;2549
318;1.080502300000262;2549
319;1.0834954000001744;2549
320;1.0866298000000825;2548
321;1.090683600000375;2546
322;1.0946979999998803;2545
323;1.0988189999998212;2545
324;1.102784800000336;2544
325;1.1068545999996786;2543
326;1.1107757999998285;2542
327;1.1147934000000532;2541
328;1.11881749999975;2541
329;1.1232626000000892;2540
330;1.1277995000000374;2539
331;1.1322784000003594;2538
332;1.1373810000004596;2537
333;1.1424079999997048;2537
334;1.147075699999732;2536
335;1.1510404999999082;2535
336;1.1547760000003109;2533
337;1.159170400000221;2532
338;1.164076799999748;2532
339;1.1679853000005096;2531
340;1.172045700000126;2530
341;1.1760713000003307;2529
342;1.1800359999997454;2528
343;1.1840557000004992;2528
344;1.1879085999999006;2527
345;1.1920286000004126;2526
346;1.196012299999893;2524
347;1.1996982000000571;2523
348;1.202567100000124;2522
349;1.2056285999997272;2522
350;1.2086801000004925;2521
351;1.2116757000003417;2520
352;1.2159991999997146;2520
353;1.2195024000002377;2518
354;1.2230141000000003;2518
355;1.226499700000204;2516
356;1.2296151999998983;2516
357;1.2341259000004356;2515
358;1.2381105000004027;2514
359;1.2421038000002227;2513
360;1.246109300000171;2512
361;1.2499672000003557;2511
362;1.2539471999998568;2509
363;1.2579752000001463;2508
364;1.2619494000000486;2508
365;1.2659481999999116;2507
366;1.269958800000495;2506
367;1.2739301000001433;2505
368;1.2776463999998668;2504
369;1.2804654999999912;2504
370;1.2835371000001032;2503
371;1.2864337000000887;2502
372;1.2897486000001663;2501
373;1.2934462000002895;2500
374;1.2966772999998284;2499
375;1.299724100000276;2498
376;1.3038237000000663;2498
377;1.3077828000004956;2496
378;1.3116706999999224;2495
379;1.3157991999996739;2494
380;1.3198296999999002;2493
381;1.3238043000001198;2491
382;1.3277791999998954;2490
383;1.3317686000000322;2489
384;1.3357568999999785;2488
385;1.3397456000002421;2486
386;1.3424610000001849;2484
387;1.3456928000005064;2483
388;1.348667199999909;2482
389;1.3516655000003084;2482
390;1.3546122999996442;2480
391;1.3583943000003273;2480
392;1.3613507000000027;2478
393;1.3643385000004855;2477
394;1.3672939999996743;2477
395;1.370285199999671;2476
396;1.373770400000467;2475
397;1.3777514000003066;2474
398;1.3819346000000223;2473
399;1.3859303999997792;2472
400;1.3892713000004733;2471
401;1.3924588999998377;2470
402;1.3953874999997424;2470
403;1.3986695000003238;2469
404;1.4015660000004573;2467
405;1.4056204999997135;2466
406;1.4093180999998367;2465
407;1.412629499999639;2465
408;1.4156754000005094;2464
409;1.4185772999999244;2463
410;1.4214222000000518;2462
411;1.4243445000001884;2461
412;1.4276522000000114;2460
413;1.430508500000542;2459
414;1.4335135000001173;2458
415;1.4363407000000734;2457
416;1.4393676999998206;2456
417;1.4423623000002408;2455
418;1.445960400000331;2454
419;1.4499236999999994;2452
420;1.4538013000001229;2451
421;1.457829099999799;2449
422;1.461856699999771;2448
423;1.465809999999692;2446
424;1.4698178999997253;2445
425;1.4738021000002846;2444
426;1.4762146000002758;2443
427;1.479776000000129;2442
428;1.4836129000004803;2440
429;1.4865454000000682;2439
430;1.4895982999996704;2438
431;1.4936526999999842;2437
432;1.4965877000004184;2436
433;1.4995859999999084;2435
434;1.5026233999997203;2434
435;1.5056495999997423;2433
436;1.509354699999676;2432
437;1.5125420000003942;2431
438;1.51555129999997;2430
439;1.518546299999798;2429
440;1.5213716999996905;2428
441;1.5243886999996903;2428
442;1.527509999999893;2427
443;1.530661400000099;2425
444;1.5344470000000001;2424
445;1.5379125999997996;2423
446;1.5414504000000306;2422
447;1.5449286000002758;2421
448;1.548788500000228;2419
449;1.5528328999998848;2418
450;1.556846299999961;2417
451;1.5592991000003167;2416
452;1.5626053000005413;2415
453;1.5655962999999247;2413
454;1.568583100000069;2412
455;1.5726387000004252;2411
456;1.575698900000134;2410
457;1.578577299999779;2409
458;1.5815954999998212;2408
459;1.5845884000000297;2407
460;1.5876053000001775;2406
461;1.5906342999996923;2405
462;1.5946614000004047;2404
463;1.5976477000003797;2402
464;1.6006333000004815;2401
465;1.6036182999996527;2400
466;1.6066541000000143;2399
467;1.6093023000003086;2398
468;1.6125196000002688;2397
469;1.6155515999998897;2396
470;1.6185510000004797;2395
471;1.6211850999998205;2394
472;1.6244380999996793;2393
473;1.6277798000000985;2392
474;1.631836800000201;2390
475;1.6358405999999377;2389
476;1.6385455999998157;2388
477;1.6415170000000217;2387
478;1.6445667999996658;2386
479;1.6475412999998298;2384
480;1.6505403000001024;2383
481;1.6534652999998798;2382
482;1.6565448999999717;2381
483;1.6592804000001706;2380
484;1.6625622999999905;2379
485;1.665561400000115;2378
486;1.668268800000078;2377
487;1.6714472000003298;2376
488;1.674574599999687;2375
489;1.6775920000000042;2374
490;1.6805912999998327;2373
491;1.6836543999997957;2372
492;1.6865829999997004;2371
493;1.6895704999997179;2370
494;1.6923237000000881;2369
495;1.695596800000203;2368
496;1.6985751000001983;2367
497;1.7016325000004144;2366
498;1.7045552999998108;2366
499;1.707573499999853;2365
500;1.7103304000002026;2364
501;1.7135862000004636;2363
502;1.716591299999891;2362
503;1.7195536999997785;2361
504;1.7225760000001173;2360
505;1.725530400000025;2360
506;1.7285661000005348;2359
507;1.7313694000004034;2358
508;1.7343759000004866;2357
509;1.7373711000000185;2356
510;1.7403629999998884;2355
511;1.7433387000000948;2354
512;1.746382000000267;2353
513;1.7494361999997636;2352
514;1.752368800000113;2352
515;1.7554449999997814;2351
516;1.7590041000003112;2349
517;1.762399799999912;2348
518;1.7658511999998154;2348
519;1.769859600000018;2347
520;1.7738486999996894;2346
521;1.7777981999997792;2344
522;1.781847000000198;2343
523;1.7858507999999347;2342
524;1.7898451999999452;2341
525;1.7933695000001535;2340
526;1.7962697000002663;2339
527;1.7991898999998739;2338
528;1.8011070000002292;2337
529;1.8030531000003975;2337
530;1.8051670000004378;2337
531;1.8071823000000222;2336
532;1.8091565000004266;2336
533;1.8112787999998545;2335
534;1.8130868999996892;2334
535;1.8151526000001468;2334
536;1.817121600000064;2333
537;1.8191101000002163;2333
538;1.8211498000000574;2333
539;1.8231125000002066;2332
540;1.8251060000002326;2332
541;1.827081100000214;2331
542;1.8290722000001551;2331
543;1.8311224999997648;2330
544;1.8330713000004835;2329
545;1.8352482000000236;2329
546;1.837177899999915;2328
547;1.8401700000003984;2328
548;1.843238399999791;2327
549;1.8452362999996694;2327
550;1.8472443999999086;2326
551;1.8492236000001867;2325
552;1.8523027000001093;2325
553;1.855364500000178;2324
554;1.858328899999833;2323
555;1.8612906999996994;2322
556;1.8643011000003753;2322
557;1.8672905000003084;2321
558;1.8702914000004967;2320
559;1.8733511999998882;2319
560;1.8761623999998847;2319
561;1.8782024000001911;2318
562;1.8802172000005157;2317
563;1.8832468000000517;2317
564;1.885184599999775;2317
565;1.8871875000004366;2316
566;1.8902107000003525;2315
567;1.8933575999999448;2315
568;1.8964188999998441;2314
569;1.8993024000001242;2313
570;1.9012423000003764;2313
571;1.903115400000388;2313
572;1.905285200000435;2312
573;1.9082829999997557;2312
574;1.910259600000245;2311
575;1.9122576999998273;2311
576;1.915335700000469;2310
577;1.917256400000042;2310
578;1.920279400000254;2309
579;1.9232828000003792;2309
580;1.9253160999996908;2308
581;1.9286252000001696;2308
582;1.9316715000004478;2307
583;1.934599100000014;2306
584;1.9376007999999274;2305
585;1.940617199999906;2305
586;1.9432999000000564;2305
587;1.9463573000002725;2304
588;1.9492892999996911;2304
589;1.9513629000002766;2303
590;1.9542344000001322;2303
591;1.9573043999998845;2302
592;1.9602783999998792;2301
593;1.9634801000001971;2301
594;1.9664865000004284;2300
595;1.9695809000004374;2300
596;1.972584099999949;2299
597;1.9755617000000711;2298
598;1.978467300000375;2298
599;1.9815048000000388;2297
600;1.984565400000065;2297
601;1.987551899999744;2297
602;1.9905734000003577;2296
603;1.9934126999996806;2296
604;1.99657550000029;2295
605;1.9992682000001878;2295
606;2.002451700000165;2294
607;2.0055668000004516;2294
608;2.008560600000237;2294
609;2.0113855999998123;2293
610;2.014541399999871;2293
611;2.017550999999912;2292
612;2.0204248999998526;2292
613;2.02302839999993;2292
614;2.025447900000472;2292
615;2.0282145000001037;2292
616;2.031227399999807;2292
617;2.0342173999997613;2291
618;2.0372534999996788;2291
619;2.04025509999974;2291
620;2.0420851999997467;2290
621;2.044406099999833;2290
622;2.047520500000246;2290
623;2.050537400000394;2290
624;2.0535372000003917;2290
625;2.0565537000002223;2289
626;2.059215100000074;2289
627;2.0625550000004296;2288
628;2.0655360999999175;2288
629;2.0685284999999567;2288
630;2.0715760000002774;2288
631;2.0744009999998525;2288
632;2.0775524000000587;2287
633;2.0805634999996983;2287
634;2.0835542000004352;2287
635;2.086557499999799;2287
636;2.0893527999996877;2286
637;2.0922233000001142;2286
638;2.095559100000173;2286
639;2.0985603999997693;2286
640;2.101556800000253;2286
641;2.104504800000541;2285
642;2.1075637000003553;2285
643;2.110550299999886;2285
644;2.113560900000266;2285
645;2.116558700000496;2285
646;2.1195299000000887;2285
647;2.1225531000000046;2285
648;2.1254304000003685;2284
649;2.1285478999998304;2284
650;2.1315424000003986;2285
651;2.1345383999996557;2285
652;2.137564900000143;2285
653;2.140545799999927;2285
654;2.143543099999988;2284
655;2.1465383000004294;2285
656;2.1495248000001084;2285
657;2.1523494000002756;2285
658;2.155570500000067;2285
659;2.1585720000002766;2285
660;2.1615438999997423;2286
661;2.1645453999999518;2286
662;2.1675304000000324;2286
663;2.1705486999999266;2286
664;2.173547999999755;2286
665;2.176516000000447;2286
666;2.179541900000004;2286
667;2.1825410999999804;2286
668;2.1864205000001675;2287
669;2.1895406000003277;2287
670;2.1922365000000354;2287
671;2.1955433000002813;2287
672;2.198551899999984;2288
673;2.201549899999918;2288
674;2.2045450000005076;2288
675;2.207542099999955;2288
676;2.2105432999996992;2288
677;2.213542000000416;2289
678;2.2165421999998216;2289
679;2.219542200000433;2289
680;2.2225540999997975;2289
681;2.2253952000000936;2290
682;2.2285431999998764;2290
683;2.231224899999688;2290
684;2.2332719000005454;2290
685;2.2365433000004487;2290
686;2.2395348999998532;2290
687;2.2422205000002577;2290
688;2.245548300000337;2291
689;2.2485342999998466;2291
690;2.2515425999999934;2291
691;2.2545453000002453;2292
692;2.2575407000003906;2292
693;2.2605441000005158;2292
694;2.263546799999858;2292
695;2.2665594999998575;2293
696;2.2695457999998325;2293
697;2.27255200000036;2293
698;2.2754164999996647;2293
699;2.278209899999638;2293
700;2.280297000000246;2294
701;2.2835469999999987;2294
702;2.286561800000527;2294
703;2.2895384000003105;2295
704;2.292247000000316;2295
705;2.2955462999998417;2295
706;2.298541600000135;2295
707;2.3015457000001334;2296
708;2.3045641999997315;2296
709;2.307561800000258;2296
710;2.310549400000127;2296
711;2.3135502000004635;2297
712;2.316551900000377;2297
713;2.3195513000000574;2298
714;2.3225492999999915;2298
715;2.3251013999997667;2298
716;2.327288000000408;2299
717;2.3303034999999;2299
718;2.3338266999999178;2299
719;2.337712499999725;2300
