;time;amplitude
0;0.005224800001087715;2422
1;0.010236400001303991;2423
2;0.015284000000974629;2423
3;0.020198600001094746;2424
4;0.024941700001363643;2424
5;0.02999660000023141;2425
6;0.03466190000108327;2426
7;0.03925650000019232;2426
8;0.04425410000112606;2427
9;0.04927730000053998;2428
10;0.054069600000730134;2429
11;0.059045900001365226;2430
12;0.06254609999996319;2432
13;0.06659230000150274;2432
14;0.07090410000091651;2433
15;0.07490470000084315;2433
16;0.07993360000000393;2433
17;0.08327970000027562;2435
18;0.08685370000057446;2436
19;0.09087929999986954;2436
20;0.09490050000022165;2437
21;0.09856050000053074;2437
22;0.10175950000120793;2438
23;0.10571920000074897;2438
24;0.10956030000124883;2439
25;0.11257550000118499;2439
26;0.11553170000115642;2439
27;0.11852670000007492;2439
28;0.1215332000010676;2440
29;0.12453310000091733;2441
30;0.12750640000012936;2441
31;0.13052630000129284;2441
32;0.13331720000132918;2441
33;0.13653140000133135;2442
34;0.13952100000096834;2442
35;0.14353269999992335;2442
36;0.14653610000095796;2443
37;0.15033370000128343;2443
38;0.1535334000000148;2444
39;0.15653110000130255;2444
40;0.159568400000353;2445
41;0.16254850000041188;2445
42;0.1662956000000122;2445
43;0.16952390000005835;2446
44;0.17252080000071146;2446
45;0.1754688000000897;2447
46;0.17952930000137712;2447
47;0.1825527000000875;2447
48;0.18553260000044247;2448
49;0.1885376999998698;2448
50;0.19129810000049474;2449
51;0.19452690000071016;2449
52;0.19752260000132082;2449
53;0.20033150000017486;2449
54;0.20352989999992133;2449
55;0.20652780000091298;2450
56;0.20936820000133594;2450
57;0.21222860000125365;2450
58;0.21523370000068098;2450
59;0.21814489999997022;2451
60;0.2218062000010832;2451
61;0.22471890000088024;2451
62;0.22872430000097665;2452
63;0.23283450000053563;2451
64;0.23680250000143133;2452
65;0.24060040000040317;2452
66;0.24466670000037993;2453
67;0.24863330000152928;2452
68;0.25162210000053165;2452
69;0.25569650000034017;2452
70;0.25964900000144553;2453
71;0.2636351000001014;2453
72;0.2675927000000229;2452
73;0.2716329000013502;2453
74;0.27566640000077314;2454
75;0.2796324999999342;2453
76;0.28318550000039977;2453
77;0.2866165000014007;2454
78;0.29064180000023043;2454
79;0.29464440000083414;2453
80;0.2986761000011029;2453
81;0.30138910000096075;2453
82;0.30467050000152085;2453
83;0.3086737000012363;2453
84;0.3126709000007395;2453
85;0.3162843000009161;2453
86;0.31934499999988475;2452
87;0.32218380000085745;2453
88;0.32516260000011243;2453
89;0.32839180000155466;2453
90;0.33141170000089915;2453
91;0.3344010000000708;2453
92;0.3374106000010215;2453
93;0.34041160000015225;2453
94;0.34322659999997995;2453
95;0.3462219000011828;2452
96;0.34935589999986405;2452
97;0.3524778000009974;2452
98;0.35547330000008515;2452
99;0.3582456000003731;2451
100;0.3616049000011117;2451
101;0.3661366000014823;2451
102;0.371113700000933;2451
103;0.37609880000127305;2451
104;0.3795194000012998;2450
105;0.3835362999998324;2450
106;0.3873464000007516;2449
107;0.3904113000007783;2449
108;0.39329429999997956;2449
109;0.397816700000476;2449
110;0.4017727999998897;2448
111;0.4057068000001891;2447
112;0.40971970000100555;2447
113;0.4133491000011418;2446
114;0.41620550000152434;2446
115;0.4207285000011325;2446
116;0.42477470000085304;2446
117;0.4287381000012829;2445
118;0.4317291000006662;2445
119;0.4345348000006197;2444
120;0.43871580000086396;2444
121;0.44268150000061723;2444
122;0.4466935000000376;2443
123;0.45024069999999483;2443
124;0.4536697000003187;2443
125;0.4577303000005486;2443
126;0.4601581000006263;2443
127;0.4635085000008985;2442
128;0.46617200000036974;2442
129;0.4697138999999879;2442
130;0.4736002000008739;2442
131;0.47760290000042005;2441
132;0.48149520000151824;2441
133;0.48427040000024135;2440
134;0.48748690000138595;2440
135;0.49044380000123056;2440
136;0.4934627000002365;2439
137;0.49648310000156926;2439
138;0.4995081000015489;2438
139;0.5026537000012468;2438
140;0.5067302000006748;2438
141;0.5108046000004833;2437
142;0.5146991000001435;2437
143;0.5172169000015856;2436
144;0.5206703000003472;2436
145;0.5247131000014633;2435
146;0.5286984000013035;2434
147;0.5326223000010941;2434
148;0.535466200000883;2433
149;0.5386112000014691;2433
150;0.5416225000008126;2432
151;0.5445976999999402;2431
152;0.5476158000001305;2431
153;0.5513915999999881;2430
154;0.5546515000005456;2430
155;0.5586584000011499;2429
156;0.5627572000012151;2429
157;0.5662564000012935;2428
158;0.5707264000011492;2427
159;0.5747009000006074;2426
160;0.5787369999998191;2426
161;0.5827557000011439;2425
162;0.5867093000015302;2425
163;0.5907224000002316;2424
164;0.5947931999999128;2423
165;0.5988078000009409;2423
166;0.6027270000013232;2422
167;0.6067172000002756;2421
168;0.6107726999998704;2421
169;0.6147642000014457;2420
170;0.6187108000012813;2420
171;0.6226972000004025;2419
172;0.6267091000008804;2419
173;0.6303083000002516;2418
174;0.633292700000311;2418
175;0.6366434000010486;2418
176;0.6407182000002649;2417
177;0.6447943000002851;2417
178;0.6488182000011875;2416
179;0.6516453000003821;2416
180;0.6557312000004458;2415
181;0.6597547000001214;2415
182;0.6637285000015254;2415
183;0.6673894000014116;2414
184;0.6706530999999814;2413
185;0.6747622000002593;2413
186;0.6787734000008641;2413
187;0.6827546000004077;2412
188;0.686716800000795;2412
189;0.6907342000013159;2411
190;0.6947516000000178;2411
191;0.6986989000015456;2411
192;0.7015012000010756;2410
193;0.7046596000000136;2410
194;0.7087133000004542;2410
195;0.7126986000002944;2409
196;0.7163018999999622;2409
197;0.7196560000011232;2409
198;0.7233153000015591;2408
199;0.7266558000010264;2408
200;0.7307508000012604;2408
201;0.7346604000013031;2407
202;0.7385958000013488;2406
203;0.7416834000014205;2406
204;0.7457527000005939;2405
205;0.7496456000008038;2405
206;0.7538632000014331;2405
207;0.757703200000833;2404
208;0.7617273000014393;2404
209;0.7656741000009788;2404
210;0.7686711000005744;2404
211;0.7716786000000866;2403
212;0.7757505999998102;2403
213;0.779800600001181;2402
214;0.783392700001059;2402
215;0.787243300001137;2402
216;0.7902254000000539;2401
217;0.7932173000008333;2401
218;0.7962664000006043;2402
219;0.7991754000013316;2402
220;0.8025020000004588;2402
221;0.8068278999999166;2402
222;0.8107990000007703;2402
223;0.8147685000003548;2402
224;0.8187937000002421;2402
225;0.8226984000011726;2402
226;0.8266390000007959;2402
227;0.8307280000008177;2402
228;0.8346529999998893;2401
229;0.83872060000067;2401
230;0.8427080000001297;2401
231;0.8467071000013675;2402
232;0.8502185000015743;2402
233;0.8536789000008866;2403
234;0.8577264000014111;2403
235;0.8617075000001932;2403
236;0.865155200001027;2403
237;0.8681606999998621;2403
238;0.8712387000014132;2403
239;0.8741168000015023;2403
240;0.8760720999998739;2403
241;0.8795867000008002;2404
242;0.8832270000002609;2404
243;0.8866124000014679;2404
244;0.8906630000001314;2404
245;0.894698400001289;2404
246;0.8970625000001746;2404
247;0.9001582000000781;2404
248;0.9036147000006167;2405
249;0.9076953000003414;2405
250;0.911418000001504;2406
251;0.9145924000004015;2406
252;0.9176051000013103;2406
253;0.9216771999999764;2407
254;0.9256939000006241;2407
255;0.9297034999999596;2407
256;0.9332224999998289;2407
257;0.9366248000005726;2408
258;0.9406926999999996;2408
259;0.9446975999999268;2408
260;0.9486757000013313;2409
261;0.9516591000010521;2409
262;0.9557010000007722;2409
263;0.959224300000642;2410
264;0.962401000000682;2410
265;0.9653185000006488;2411
266;0.9683982000005926;2411
267;0.9713965000009921;2411
268;0.9741014999999607;2411
269;0.9778350000015053;2412
270;0.9817799000011291;2413
271;0.9857200000005832;2413
272;0.989686700000675;2413
273;0.9936123000006774;2413
274;0.998158100001092;2413
275;1.002601300000606;2413
276;1.0075023999997939;2414
277;1.011930000000575;2415
278;1.0156791000008525;2415
279;1.0197402000012517;2416
280;1.0233345000015106;2417
281;1.0274648000013258;2417
282;1.0306194000004325;2418
283;1.0347340000007534;2418
284;1.0387951000011526;2419
285;1.04279520000091;2419
286;1.046884700001101;2420
287;1.0503246000007493;2421
288;1.054801199999929;2421
289;1.0587860000014189;2422
290;1.062873300001229;2423
291;1.0663508000016009;2423
292;1.069735099999889;2424
293;1.0737904000015988;2424
294;1.0778631000011956;2425
295;1.081863200000953;2426
296;1.0858062000006612;2427
297;1.089787900000374;2428
298;1.0938426000011532;2428
299;1.0978383000001486;2429
300;1.1017539000004035;2429
301;1.1057880000007572;2430
302;1.1097932000011497;2431
303;1.1138937000014266;2432
304;1.11743209999986;2433
305;1.1218704000002617;2433
306;1.1258649999999761;2434
307;1.1304352000006475;2434
308;1.134738800001287;2435
309;1.1387891000013042;2436
310;1.1428234000013617;2437
311;1.1467929000009462;2437
312;1.150320600001578;2438
313;1.1548069000000396;2438
314;1.158807900001193;2439
315;1.162760300001537;2440
316;1.166403300001548;2440
317;1.1708243000011862;2441
318;1.174444800000856;2442
319;1.1777527000012924;2442
320;1.1817780000001221;2442
321;1.1858244000013656;2443
322;1.1898059000013745;2443
323;1.1937867000015103;2444
324;1.1977921000016067;2444
325;1.201740600001358;2445
326;1.2057493000011164;2445
327;1.209791100000075;2445
328;1.2138248999999632;2446
329;1.2174759000008635;2446
330;1.221854400000666;2447
331;1.2258169000015187;2447
332;1.2298177000011492;2447
333;1.2333514000001742;2447
334;1.2368612000009307;2447
335;1.2408133000008092;2448
336;1.2447797000004357;2448
337;1.2489092000014352;2448
338;1.252868400000807;2448
339;1.2568256000013207;2448
340;1.260763100000986;2449
341;1.2648693999999523;2449
342;1.2686669000013353;2450
343;1.2728407000013249;2450
344;1.276837200000955;2450
345;1.2806747000013274;2451
346;1.2843876000006276;2451
347;1.2875927000004594;2451
348;1.2918600000011793;2452
349;1.2958300999998755;2452
350;1.2996981000014785;2452
351;1.3037311000007321;2453
352;1.3076427000014519;2453
353;1.3117977000001702;2453
354;1.3158753000006982;2452
355;1.3199142000012216;2453
356;1.3237977000007959;2453
357;1.3278827000012825;2453
358;1.3316308000012214;2453
359;1.3345317000002979;2453
360;1.337866200001372;2453
361;1.3418496000012965;2452
362;1.3458424000000377;2453
363;1.3495242000008147;2452
364;1.352755600000819;2452
365;1.3567868000009184;2452
366;1.3608521000005567;2452
367;1.3648988000004465;2452
368;1.3688911000008375;2451
369;1.3728776000007201;2451
370;1.376846099999966;2451
371;1.3803367000000435;2450
372;1.3847829000005731;2450
373;1.3888008000012633;2451
374;1.3927813999998762;2451
375;1.3967270000011922;2451
376;1.4003307000002678;2450
377;1.4048843000000488;2450
378;1.4088369000000966;2450
379;1.4124416000013298;2450
380;1.4158702000004268;2450
381;1.4198960000012448;2450
382;1.423831699999937;2450
383;1.4278745999999956;2450
384;1.4318272000000434;2449
385;1.4358975000013743;2448
386;1.439824300001419;2448
387;1.4437955000012153;2448
388;1.4478761999998824;2448
389;1.4518584000015835;2448
390;1.455879700000878;2447
391;1.459898000000976;2447
392;1.463832999999795;2446
393;1.4674638000014966;2446
394;1.4719187000009697;2445
395;1.4753276000010374;2445
396;1.4788069000005635;2445
397;1.4828799000006256;2444
398;1.4868633000005502;2444
399;1.4909213999999338;2444
400;1.4948736000005738;2443
401;1.4989126000000397;2442
402;1.5027843000007124;2442
403;1.5053266000013537;2442
404;1.5098250000010012;2442
405;1.5138489000000845;2441
406;1.5176166000001103;2441
407;1.522351700001309;2441
408;1.5257939000002807;2441
409;1.5297848999998678;2440
410;1.5333545000012236;2440
411;1.5362813000010647;2439
412;1.5404336000010517;2439
413;1.5436110000009649;2438
414;1.5474423000014212;2438
415;1.551490300000296;2437
416;1.555639300000621;2437
417;1.5596402999999555;2436
418;1.562300999999934;2435
419;1.565607700000328;2435
420;1.5685350000003382;2434
421;1.5728897000008146;2434
422;1.5767749000006006;2434
423;1.5809175000013056;2433
424;1.5846987000004447;2433
425;1.5887101000007533;2432
426;1.5928141000003961;2431
427;1.596772000000783;2431
428;1.6003615000008722;2430
429;1.603868300000613;2430
430;1.6075304000005417;2429
431;1.6108328999998776;2429
432;1.6145118000004004;2429
433;1.617745500001547;2429
434;1.621874200000093;2428
435;1.6258781000015006;2428
436;1.6299355999999534;2427
437;1.6333534000004875;2427
438;1.63781150000068;2426
439;1.641813500000353;2426
440;1.6454573000009987;2425
441;1.6486496000015904;2424
442;1.651755700000649;2424
443;1.6558187000009639;2423
444;1.659826700000849;2422
445;1.663854899999933;2421
446;1.6676138000002538;2421
447;1.6704048000010516;2420
448;1.6737234000011085;2420
449;1.6774813000010909;2419
450;1.680471800000305;2419
451;1.6832994000014878;2418
452;1.6878876000009768;2417
453;1.6918799000013678;2417
454;1.6958697999998549;2417
455;1.6994716000008339;2416
456;1.7039230999998836;2416
457;1.707854899999802;2415
458;1.7118023000002722;2415
459;1.715885999999955;2414
460;1.7198036999998294;2413
461;1.7237939000006008;2413
462;1.7278423000007024;2412
463;1.7318412000004173;2412
464;1.735823300001357;2412
465;1.7395378000001074;2411
466;1.7438271999999415;2411
467;1.7477695000015956;2410
468;1.7518264999998792;2410
469;1.7554067000000941;2409
470;1.7598087000005762;2409
471;1.7639030999998795;2409
472;1.7677168999998685;2408
473;1.7718899000010424;2407
474;1.7758575000007113;2407
475;1.7798798000003444;2406
476;1.7833059000004141;2406
477;1.78633340000124;2406
478;1.789553500000693;2405
479;1.7928300000003219;2405
480;1.7968586000006326;2405
481;1.8003545999999915;2404
482;1.8042865000006714;2404
483;1.8073272000001452;2404
484;1.8103043000010075;2403
485;1.8133261000002676;2403
486;1.8162747000005766;2403
487;1.819260000000213;2403
488;1.8221819999998843;2403
489;1.8252097000004142;2402
490;1.8284118000010494;2402
491;1.8314459000011993;2402
492;1.834136800000124;2402
493;1.8371843000004446;2403
494;1.84020640000017;2403
495;1.84330349999982;2403
496;1.846305700000812;2403
497;1.8490828000012698;2402
498;1.8523052000000462;2402
499;1.855304900000192;2403
500;1.858327800000552;2402
501;1.8613257000015437;2402
502;1.8643193000007159;2402
503;1.8673127000001841;2402
504;1.8703108999998221;2403
505;1.8733041000014055;2402
506;1.876339000000371;2403
507;1.8793254000011075;2402
508;1.8822063000006892;2403
509;1.8841150000007474;2403
510;1.8861133999998856;2403
511;1.8881121000013081;2403
512;1.8900738000011188;2403
513;1.893073600000207;2403
514;1.8961233999998512;2403
515;1.8991543000011006;2403
516;1.902165999999852;2402
517;1.905180499999915;2402
518;1.9081715000011172;2403
519;1.911180200000672;2403
520;1.914191400001073;2403
521;1.9170505000001867;2404
522;1.9191523000008601;2404
523;1.9226362000008521;2404
524;1.9255551000005653;2405
525;1.9285643000002892;2405
526;1.9313867000000755;2406
527;1.9343023000001267;2406
528;1.9372948000000179;2406
529;1.9403207000013936;2405
530;1.9433914000001096;2406
531;1.946331300001475;2406
532;1.9491398999998637;2407
533;1.9523232000010466;2406
534;1.9553618999998434;2407
535;1.9583521000004112;2407
536;1.9613616000006004;2407
537;1.9644275000009657;2407
538;1.9674382000011974;2408
539;1.9704378000005818;2408
540;1.9734535000006872;2409
541;1.9764353000009578;2409
542;1.9794482000015705;2409
543;1.9823058000001765;2409
544;1.9853868000009243;2409
545;1.9884015000006912;2410
546;1.991397000001598;2409
547;1.9944141000014497;2410
548;1.9974402000007103;2410
549;2.0004032000015286;2410
550;2.003427000001466;2410
551;2.006247000001167;2411
552;2.0091769999999087;2411
553;2.0121818000006897;2412
554;2.01522660000046;2412
555;2.0181389000008494;2413
556;2.0201587000010477;2413
557;2.022153800000524;2414
558;2.0240862000009656;2414
559;2.0263867000012397;2414
560;2.02937220000058;2414
561;2.0322824000013497;2414
562;2.0353865000015503;2415
563;2.0383640000000014;2416
564;2.041151400000672;2416
565;2.043392000001404;2416
566;2.046404100001382;2416
567;2.0490934000008565;2416
568;2.052288900000349;2417
569;2.0552158000009513;2417
570;2.0582396000008885;2417
571;2.061358900000414;2418
572;2.064259000000675;2418
573;2.067295100001502;2418
574;2.07029490000059;2418
575;2.0735629000009794;2419
576;2.0766336000015144;2419
577;2.080634200001441;2419
578;2.084684700001162;2420
579;2.0887216000010085;2420
580;2.092669900001056;2420
581;2.0967170000003534;2421
582;2.1006225000000995;2422
583;2.1036082999999053;2423
584;2.107725300000311;2424
585;2.1116673000015;2424
586;2.115598600001249;2425
587;2.1186646000005567;2426
588;2.122724200000448;2427
589;2.1266873000004125;2428
590;2.1307324999997945;2428
591;2.1347129000005225;2429
592;2.1387279000009585;2429
593;2.1416340000014316;2430
594;2.1446430000014516;2430
595;2.1487547000015184;2430
596;2.152697600000465;2432
597;2.1567286000008608;2432
598;2.1606714999998076;2433
599;2.1647149000000354;2434
600;2.167650900000808;2435
601;2.1717196999998123;2435
602;2.174623100001554;2435
603;2.177623500001573;2435
604;2.180665300000328;2436
605;2.1847143000013602;2436
606;2.1876528000011604;2436
607;2.1917337000013504;2437
608;2.195717100001275;2438
609;2.1986868000003597;2438
610;2.201415600000473;2439
611;2.204416600001423;2439
612;2.2074191000010615;2439
613;2.2104255000012927;2440
614;2.213437400001567;2441
615;2.2161825000002864;2442
616;2.2194434000011825;2442
617;2.222449400000187;2442
618;2.225362099999984;2442
619;2.2284386999999697;2443
620;2.231431500000326;2443
621;2.2344334999997955;2443
622;2.2374416000002384;2443
623;2.24042449999979;2443
624;2.243434200001502;2444
625;2.246433199999956;2445
626;2.2491116000001057;2445
627;2.252437600000121;2445
628;2.25543800000014;2446
629;2.2584330000008777;2445
630;2.2614270000012766;2446
631;2.2644381999998586;2446
632;2.267420400001356;2446
633;2.270440600001166;2446
634;2.273417899999913;2446
635;2.276387700001578;2447
636;2.279452400000082;2447
637;2.2822191000013845;2447
638;2.2854350000015984;2447
639;2.2881164999998873;2447
640;2.291441700001087;2448
641;2.2944287000009354;2448
642;2.297438700001294;2448
643;2.300438500000382;2449
644;2.303433600000062;2449
645;2.306379300000117;2449
646;2.3094299000003957;2450
647;2.3124697000002925;2450
648;2.31544329999997;2450
649;2.318457800000033;2450
650;2.321445400000812;2450
651;2.32444470000155;2450
652;2.3274552000002586;2450
653;2.3304504000007;2451
654;2.3334677000002557;2451
655;2.336458700001458;2451
656;2.339453100001265;2451
657;2.342461900001581;2451
658;2.345464699999866;2452
659;2.34843120000005;2452
660;2.351220300000932;2452
661;2.3544458000014856;2452
662;2.357455299999856;2452
663;2.3604642000009335;2453
664;2.3634402000006958;2453
665;2.3663458000009996;2453
666;2.3694482000009884;2453
667;2.372460000000501;2453
668;2.3754571999998007;2453
669;2.3784403999998176;2453
670;2.3814428000005137;2453
671;2.384200899999996;2453
672;2.386071800001446;2453
673;2.3883249000009528;2453
674;2.3913140000004205;2453
675;2.3942875000011554;2453
676;2.3972864000006666;2453
677;2.4007751000008284;2453
678;2.4047597000007954;2453
679;2.410141800000929;2453
680;2.415035699999862;2454
681;2.4203329000010854;2453
682;2.425303400001212;2453
683;2.429862300001332;2453
684;2.4335241000007954;2452
685;2.436549699999887;2451
686;2.4409296000012546;2451
687;2.444907000000967;2451
688;2.448927100000219;2451
689;2.4528686000012385;2451
690;2.4568373000001884;2450
691;2.4613222000007227;2450
692;2.464381100000537;2449
693;2.467809900001157;2450
694;2.47186099999999;2449
695;2.475834800001394;2449
696;2.479932500000359;2449
697;2.4834275000011985;2448
698;2.4878568000003725;2447
699;2.4918187000002945;2447
700;2.4959340000004886;2447
701;2.499456100000316;2447
702;2.5035678000003827;2447
703;2.5079147000014927;2447
704;2.511851700000989;2446
705;2.5160008000002563;2446
706;2.519800900001428;2445
707;2.5238116000000446;2445
708;2.5279406999998173;2444
709;2.532144300001164;2444
710;2.535310000001118;2444
711;2.538308200000756;2444
712;2.5414122000001953;2444
713;2.544880600000397;2443
714;2.5484226000007766;2443
715;2.551462800000081;2442
716;2.554476400000567;2442
717;2.5575520000002143;2442
718;2.561540900000182;2441
719;2.564319200000682;2441
