;time;amplitude
0;0.005321499999809021;2136
1;0.010311799999726645;2132
2;0.015300399999432557;2127
3;0.02031840000017837;2123
4;0.024735400000281516;2119
5;0.02977439999995113;2114
6;0.03534620000027644;2110
7;0.040389699999650475;2105
8;0.04470899999978428;2101
9;0.04907000000002881;2098
10;0.052924099999472674;2095
11;0.05754179999985354;2092
12;0.06028859999969427;2089
13;0.0633759000002101;2087
14;0.06739680000009685;2084
15;0.07137839999995776;2081
16;0.07576349999999366;2078
17;0.0796991999995953;2075
18;0.08369309999943653;2073
19;0.08768760000020848;2070
20;0.09019869999974617;2068
21;0.09375309999995807;2066
22;0.09764949999953387;2064
23;0.10164509999958682;2061
24;0.10521030000018072;2059
25;0.10872599999947852;2056
26;0.11264339999979711;2054
27;0.11670690000028117;2052
28;0.12064970000028552;2049
29;0.12457259999973758;2046
30;0.128654799999822;2044
31;0.1326469999994515;2042
32;0.136458599999969;2040
33;0.14003179999963322;2038
34;0.14360740000029182;2037
35;0.14764139999988402;2035
36;0.15192899999965448;2034
37;0.1556300000002011;2031
38;0.15857469999991736;2030
39;0.16265719999955763;2029
40;0.16663859999971464;2027
41;0.17067150000002584;2025
42;0.1745730000002368;2023
43;0.17863750000014988;2022
44;0.18264129999988654;2021
45;0.18557419999979174;2020
46;0.1896852999998373;2019
47;0.19363720000001194;2018
48;0.19761479999942821;2016
49;0.2016593999996985;2016
50;0.20561910000014905;2014
51;0.20856869999988703;2014
52;0.2126287000000957;2013
53;0.21661289999974542;2013
54;0.22061479999956646;2012
55;0.22455189999982395;2011
56;0.22861039999952482;2010
57;0.23217589999967458;2009
58;0.2356203999997888;2009
59;0.2396731999997428;2009
60;0.242386500000066;2008
61;0.24618759999975737;2008
62;0.24920730000030744;2007
63;0.2525731999994605;2007
64;0.2562705000000278;2007
65;0.2594907000002422;2007
66;0.26239910000003874;2007
67;0.2653927000001204;2007
68;0.2683640999994168;2007
69;0.2715357999995831;2007
70;0.27454820000002655;2007
71;0.27863689999958297;2008
72;0.28260880000016186;2008
73;0.2866352999999435;2008
74;0.2902155000001585;2009
75;0.29359539999950357;2009
76;0.29760239999995974;2010
77;0.30163850000008097;2010
78;0.30561459999989893;2010
79;0.3085387000000992;2011
80;0.31259489999956713;2012
81;0.3166332999999213;2013
82;0.3205767999997988;2014
83;0.32452329999978247;2015
84;0.32862329999989015;2016
85;0.33261419999962527;2017
86;0.3366218999999546;2018
87;0.34013249999952677;2019
88;0.3435505999996167;2021
89;0.3476269000002503;2021
90;0.3516093999996883;2022
91;0.35612309999942227;2024
92;0.359574000000066;2025
93;0.3636287999997876;2026
94;0.36758999999983644;2028
95;0.3711009999997259;2029
96;0.37452070000017557;2031
97;0.3785901000001104;2032
98;0.3826196999998501;2034
99;0.38610999999946216;2036
100;0.38958240000010846;2037
101;0.39363959999991494;2038
102;0.39759700000013254;2041
103;0.4013508999996702;2043
104;0.4046378000002733;2045
105;0.40867269999944256;2047
106;0.4126335000000836;2049
107;0.41639260000010836;2051
108;0.4206709999998566;2054
109;0.42455229999995936;2056
110;0.4286131999997451;2059
111;0.43213509999986854;2061
112;0.43508680000013555;2063
113;0.4380444999997053;2065
114;0.4410470000002533;2066
115;0.44466430000011314;2068
116;0.4485821999996915;2071
117;0.45261979999941104;2074
118;0.4563068999996176;2077
119;0.45961329999954614;2079
120;0.46360790000017005;2082
121;0.46764530000018567;2085
122;0.4716382999995403;2088
123;0.4756591999994271;2090
124;0.4795453999995516;2093
125;0.4825367000003098;2095
126;0.4865717000002405;2098
127;0.49011979999977484;2101
128;0.4932614999997895;2104
129;0.4959560999996029;2105
130;0.4979317999996056;2107
131;0.501265400000193;2109
132;0.504288500000257;2111
133;0.507312699999602;2114
134;0.5102945999997246;2117
135;0.5133213999997679;2120
136;0.5163152999994054;2122
137;0.519319899999573;2125
138;0.522336400000313;2128
139;0.5253191000001607;2130
140;0.5283106999995653;2133
141;0.5313131000002613;2135
142;0.5343101999997089;2138
143;0.5373104999998759;2141
144;0.5403160999994725;2143
145;0.5433081000001039;2146
146;0.5463197999997647;2149
147;0.5492893999999069;2152
148;0.5523146999994424;2155
149;0.5552526999999827;2158
150;0.5580994000001738;2160
151;0.5612599999994927;2163
152;0.564259900000252;2166
153;0.567258000000038;2169
154;0.5702528000001621;2172
155;0.5729961999995794;2175
156;0.576318700000229;2178
157;0.5792437999998583;2181
158;0.5822466999998142;2184
159;0.585249699999622;2187
160;0.5882418000001053;2190
161;0.5913134000002174;2192
162;0.5942863999998735;2196
163;0.5972563999994236;2200
164;0.6001065000000381;2203
165;0.6031166000002486;2206
166;0.6061780999998518;2209
167;0.6093826999995144;2213
168;0.6123766999999134;2217
169;0.6153733000001012;2220
170;0.6183672999995906;2223
171;0.6213778999999704;2227
172;0.6240179999995235;2230
173;0.6272859000000608;2234
174;0.6302802000000156;2237
175;0.6332577000002857;2241
176;0.6362239999998565;2245
177;0.6394202000001314;2248
178;0.6435488999995869;2252
179;0.647615400000177;2257
180;0.6517143000000942;2262
181;0.6555799999996452;2267
182;0.6600516999997126;2272
183;0.6650293000002421;2279
184;0.6685246999995798;2283
185;0.6730400999995254;2288
186;0.6780695999996169;2293
187;0.6831547000001592;2299
188;0.6877395000001343;2305
189;0.6914914999997563;2310
190;0.6956442000000607;2315
191;0.6993296999999075;2319
192;0.702621999999792;2323
193;0.7063344999996843;2328
194;0.7096032999997988;2332
195;0.7136577999999645;2337
196;0.7177113999996436;2342
197;0.7215674999997646;2347
198;0.7257391000002826;2351
199;0.7297612000002118;2357
200;0.7336580999999569;2361
201;0.7376674999995885;2366
202;0.7416333999999551;2372
203;0.7456611999996312;2377
204;0.7496233000001666;2382
205;0.7537618999995175;2387
206;0.7571694999996907;2393
207;0.7605708000000959;2397
208;0.7630723000002035;2401
209;0.7667229999997289;2405
210;0.7707141999999294;2410
211;0.7742263000000094;2415
212;0.7776570999994874;2418
213;0.7816629999997531;2423
214;0.7857152999995378;2429
215;0.7896620000001349;2434
216;0.7935429999997723;2439
217;0.796335199999703;2443
218;0.7994874999994863;2447
219;0.8025049999996554;2451
220;0.8052634999994552;2455
221;0.8097968000001856;2459
222;0.8136446999997133;2465
223;0.8177139999997962;2470
224;0.8216028999995615;2476
225;0.8242820999994365;2480
226;0.8276808000000528;2484
227;0.8317107000002579;2489
228;0.8357527999996819;2493
229;0.839717799999562;2498
230;0.8436824000000342;2504
231;0.8476807999995799;2509
232;0.851747499999874;2514
233;0.8557381000000532;2520
234;0.8597428000002765;2525
235;0.8637200000002849;2530
236;0.8674630999994406;2536
237;0.8704907000001185;2540
238;0.873177499999656;2544
239;0.8777485999999044;2548
240;0.8817189000001235;2554
241;0.885722099999839;2558
242;0.8896770000001197;2563
243;0.8937518000002456;2568
244;0.8977464999998119;2573
245;0.9017487999999503;2578
246;0.905758899999455;2583
247;0.9097467000001416;2588
248;0.9137579999996888;2593
249;0.9183498000002146;2599
250;0.9213733999995384;2603
251;0.92462549999982;2606
252;0.9286910999999236;2610
253;0.9326530999996976;2615
254;0.936783000000105;2620
255;0.9402339999996912;2624
256;0.9447454999999536;2629
257;0.948740099999668;2633
258;0.9527109000000564;2638
259;0.956202200000007;2643
260;0.9594098999996277;2646
261;0.9632919999994556;2650
262;0.9677835000002233;2654
263;0.9717638000001898;2659
264;0.975763100000222;2664
265;0.979716599999847;2668
266;0.9836671000002752;2673
267;0.9877378999999564;2677
268;0.9917270999994798;2682
269;0.9954449999995632;2687
270;0.9996695999998337;2690
271;1.0036958000000595;2694
272;1.0072528999999122;2698
273;1.0105905999998868;2702
274;1.0147471999998743;2706
275;1.0187513999999283;2711
276;1.0228225999999268;2715
277;1.0262569999995321;2720
278;1.0294653999999355;2723
279;1.0335742999996;2726
280;1.03775719999976;2730
281;1.0413684999994075;2734
282;1.0447013000002698;2738
283;1.048564599999736;2741
284;1.0513209999999162;2744
285;1.0558098000001337;2746
286;1.059672800000044;2750
287;1.0636525999998412;2754
288;1.0677461999994193;2758
289;1.071729299999788;2762
290;1.0758147999995344;2765
291;1.0795517999995354;2769
292;1.0824899999997797;2772
293;1.0867185999995854;2775
294;1.0903140000000349;2778
295;1.0947636000000784;2781
296;1.098738200000298;2784
297;1.1027180999999473;2787
298;1.106348799999978;2789
299;1.1096351999995022;2792
300;1.113680700000259;2794
301;1.1177434000001085;2797
302;1.1217415999999503;2800
303;1.1256929999999556;2803
304;1.1297119000000748;2806
305;1.1336357999998654;2809
306;1.1377138999996532;2812
307;1.1416769999996177;2814
308;1.1456548999994993;2817
309;1.1496965999995155;2819
310;1.1535816999994495;2822
311;1.157194100000197;2824
312;1.1606739999997444;2825
313;1.1647023999994417;2827
314;1.1687670000001162;2830
315;1.1728391999995438;2832
316;1.176787599999443;2835
317;1.1807360000002518;2837
318;1.1847327999994377;2840
319;1.1887876999999207;2841
320;1.1927065999998376;2843
321;1.1966686999994636;2845
322;1.2007533999994848;2847
323;1.2047393000002558;2848
324;1.2087800999997853;2849
325;1.2127248999995572;2851
326;1.2167854999997871;2852
327;1.2207582999999431;2854
328;1.2245161999999254;2855
329;1.2287717999997767;2856
330;1.2323582999997598;2858
331;1.2367745000001378;2859
332;1.2401965999997628;2861
333;1.2447701000000961;2861
334;1.248242499999833;2863
335;1.2512586000002557;2864
336;1.2546286999995573;2864
337;1.2586977999999363;2865
338;1.2626577999999427;2865
339;1.2667184000001726;2866
340;1.2707377999995515;2867
341;1.2743155999996816;2867
342;1.2775939000002836;2868
343;1.2817588999996588;2868
344;1.2857629999998608;2869
345;1.2896279999995386;2869
346;1.293778100000054;2869
347;1.2961797999996634;2870
348;1.299724999999853;2870
349;1.3037785999995322;2870
350;1.307224999999562;2870
351;1.3107608000000255;2870
352;1.314667499999814;2870
353;1.3186741999998048;2869
354;1.322793499999534;2869
355;1.3265970000002199;2869
356;1.3304996999995637;2869
357;1.3345871999999872;2869
358;1.3385441999998875;2868
359;1.3414877999994133;2867
360;1.3456740000001446;2867
361;1.3496801000001142;2866
362;1.3537747000000309;2866
363;1.3571798000002673;2866
364;1.3605597999994643;2865
365;1.3647085000002335;2864
366;1.3687691999994058;2863
367;1.3726576999997633;2862
368;1.376752000000124;2861
369;1.3807598000003054;2861
370;1.3847329999998692;2859
371;1.3883132999999361;2859
372;1.391187600000194;2858
373;1.3940726000000723;2857
374;1.39705210000011;2856
375;1.4000291000002107;2855
376;1.4025566000000254;2854
377;1.4055882000002384;2853
378;1.4085887000001094;2852
379;1.4123945999999705;2851
380;1.4153575000000274;2850
381;1.4183820999996897;2848
382;1.422497900000053;2847
383;1.4252943999999843;2845
384;1.4283144000000902;2844
385;1.4312885999997889;2842
386;1.4342853999996805;2841
387;1.437314900000274;2840
388;1.440172900000107;2839
389;1.4433188000002701;2838
390;1.4463114999998652;2836
391;1.4493100999998205;2834
392;1.4523136999996495;2833
393;1.455343200000243;2831
394;1.4583277000001544;2830
395;1.461295600000085;2828
396;1.4642870999996376;2827
397;1.4668941999998424;2825
398;1.4702996999994866;2824
399;1.4729638999997405;2822
400;1.47627250000005;2821
401;1.479262099999687;2819
402;1.4821332000001348;2817
403;1.4852635999995982;2816
404;1.4882668999998714;2813
405;1.4912557999996352;2812
406;1.4943271000001914;2810
407;1.4972919000001639;2808
408;1.5000146000002132;2806
409;1.5032905999996728;2805
410;1.5059884000002057;2802
411;1.5092935000002399;2800
412;1.5122865000003003;2798
413;1.515284399999473;2796
414;1.5182880000002115;2793
415;1.521282699999574;2791
416;1.5243000999998912;2789
417;1.527294499999698;2786
418;1.5302953000000343;2784
419;1.533283499999925;2782
420;1.53630129999965;2779
421;1.539076500000192;2777
422;1.542284699999982;2775
423;1.5451493000000482;2772
424;1.548294100000021;2770
425;1.5512931000002936;2768
426;1.5542942000001858;2765
427;1.5572979999997187;2763
428;1.560250200000155;2760
429;1.5633009000002858;2758
430;1.5662634999998772;2755
431;1.56925769999998;2752
432;1.572232200000144;2750
433;1.5752670000001672;2747
434;1.5782712999998694;2745
435;1.5811032999999952;2742
436;1.58410079999976;2740
437;1.5870686999996906;2737
438;1.5889479999996183;2735
439;1.5909111000000848;2733
440;1.593051099999684;2732
441;1.5950002999998105;2730
442;1.5969846999996662;2728
443;1.6000662999995257;2726
444;1.6030933000001824;2723
445;1.606186500000149;2719
446;1.6095328999999765;2716
447;1.613567399999738;2712
448;1.617576800000279;2708
449;1.6214522999998735;2703
450;1.6245836999996754;2699
451;1.6285845000002155;2696
452;1.6325792999996338;2692
453;1.6365237999998499;2688
454;1.6405360999997356;2683
455;1.6445714999999836;2679
456;1.6485826999996789;2674
457;1.6520915999999488;2669
458;1.6556266999996296;2666
459;1.6585353999998915;2662
460;1.6623939000000973;2658
461;1.6663828999999168;2654
462;1.669383999999809;2650
463;1.6724905999999464;2647
464;1.6763075999997454;2643
465;1.67931309999949;2639
466;1.6823057000001427;2636
467;1.6852209999997285;2632
468;1.6880962999994154;2629
469;1.6911105999997744;2626
470;1.6945202999995672;2621
471;1.698682999999619;2618
472;1.7025692999995954;2613
473;1.7061124000001655;2608
474;1.7095116000000417;2603
475;1.7135834999999133;2599
476;1.7176047000002654;2595
477;1.7215908999996827;2590
478;1.7245530999998664;2586
479;1.7285894999995435;2581
480;1.7325848999998925;2576
481;1.7365810999999667;2571
482;1.7405337999998665;2565
483;1.7445747000001575;2560
484;1.7486189000001104;2555
485;1.7525912999999491;2550
486;1.756118499999502;2545
487;1.7595519999995304;2541
488;1.763176399999793;2537
489;1.766535699999622;2532
490;1.7703645999999935;2527
491;1.7745930999999473;2522
492;1.7780861000001096;2518
493;1.7813610000002882;2514
494;1.784350099999756;2509
495;1.7873423999999432;2505
496;1.7903741000000082;2502
497;1.7932568999995055;2498
498;1.7961215999994238;2494
499;1.7995925999994142;2491
500;1.803652499999771;2485
501;1.807553800000278;2480
502;1.8119587999999567;2475
503;1.8169956000001548;2469
504;1.8221974999996746;2463
505;1.826663599999847;2456
506;1.8305712999999741;2451
507;1.8348447999997006;2445
508;1.8388887000000977;2441
509;1.8425079999997251;2435
510;1.8464580999998361;2431
511;1.8493780999997398;2426
512;1.8535667999994985;2421
513;1.857208399999763;2415
514;1.860225999999784;2411
515;1.8634094999997615;2408
516;1.8664516999997431;2404
517;1.869543199999498;2400
518;1.8733370999998442;2396
519;1.8777367000002414;2390
520;1.8817196999998487;2385
521;1.8857514000001174;2380
522;1.8897538999999597;2375
523;1.8920851000002585;2370
524;1.8954843000001347;2366
525;1.8995641000001342;2361
526;1.9035957999994935;2356
527;1.907490599999619;2351
528;1.9104551999998876;2346
529;1.9134643999996115;2343
530;1.9165187999997215;2339
531;1.9202890999995361;2335
532;1.9232285999996748;2331
533;1.9265472999995836;2327
534;1.9305978000002142;2322
535;1.9345923999999286;2317
536;1.9386060999995607;2312
537;1.941442499999539;2308
538;1.9455262999999832;2303
539;1.9495601999997234;2299
540;1.9535814999999275;2294
541;1.9574910999999702;2289
542;1.9604833000003055;2284
543;1.9635127000001376;2281
544;1.967472700000144;2277
545;1.9716530999994575;2273
546;1.9744800999997096;2268
547;1.9774639999995998;2264
548;1.9804574999998295;2261
549;1.9831875999998374;2257
550;1.986508899999535;2253
551;1.9902643999994325;2249
552;1.9935150000001158;2245
553;1.997300500000165;2241
554;2.0005488999995578;2237
555;2.0045823000000382;2232
556;2.0074875000000247;2228
557;2.010500599999432;2224
558;2.014532600000166;2221
559;2.0174827000000732;2217
560;2.0204444999999396;2213
561;2.0231653000000733;2210
562;2.0264454999996815;2206
563;2.0301620999998704;2201
564;2.0334421999996266;2197
565;2.036472699999649;2194
566;2.0392093000000386;2190
567;2.0424450999998953;2187
568;2.0452832999999373;2184
569;2.048249599999508;2181
570;2.051315699999577;2178
571;2.054262800000288;2174
572;2.0572268999994776;2172
573;2.0602435000000696;2168
574;2.063265300000239;2165
575;2.0662492000001293;2161
576;2.0692559999997684;2157
577;2.0722274999998263;2155
578;2.075270499999533;2151
579;2.0782883000001675;2149
580;2.081194499999583;2146
581;2.0842118000000482;2143
582;2.087206299999707;2140
583;2.0902243999998973;2137
584;2.093246700000236;2134
585;2.096281600000111;2131
586;2.0992301999995107;2128
587;2.102308499999708;2126
588;2.105118499999662;2123
589;2.1083607999999003;2121
590;2.1113792999994985;2117
591;2.114349499999662;2115
592;2.117355399999724;2112
593;2.1203300999995918;2110
594;2.1231823999996777;2107
595;2.1263555999994423;2103
596;2.1293421999998827;2101
597;2.1323851999995895;2098
598;2.135357699999986;2096
599;2.1383465999997497;2094
600;2.1413321999998516;2092
601;2.144355899999937;2089
602;2.1473582999997234;2087
603;2.1513540999994802;2084
604;2.1541243000001487;2081
605;2.157158199999685;2078
606;2.160064599999714;2075
607;2.1630090999997265;2073
608;2.164978499999961;2071
609;2.166844299999866;2070
610;2.168956700000308;2068
611;2.1709263000002466;2067
612;2.173041600000033;2065
613;2.1750740999996196;2064
614;2.1769906999998057;2063
615;2.1788477000000057;2061
616;2.1808546000002025;2060
617;2.182855600000039;2058
618;2.184906200000114;2057
619;2.186882500000138;2055
620;2.1888524999994843;2054
621;2.19093040000007;2052
622;2.1928962000001775;2051
623;2.194882300000245;2050
624;2.196862499999952;2049
625;2.1988580999995975;2047
626;2.200987299999724;2046
627;2.2029219999994893;2045
628;2.2050044999996317;2043
629;2.2070160000002943;2043
630;2.2090080999996644;2041
631;2.2109791000002588;2040
632;2.2129759999997987;2039
633;2.2149688999998034;2038
634;2.217021399999794;2037
635;2.2190389999996114;2036
636;2.2210433000000194;2034
637;2.2230148999997255;2033
638;2.226045100000192;2031
639;2.2280539000003046;2030
640;2.2300343999995675;2029
641;2.2330284999998185;2028
642;2.2350220999996964;2027
643;2.2370224999995116;2026
644;2.238873899999817;2025
645;2.2409176999999545;2024
646;2.2430201999995916;2023
647;2.244893299999603;2022
648;2.2469639000000825;2021
649;2.2488172000003033;2020
650;2.250875400000041;2019
651;2.252881599999455;2018
652;2.254971899999873;2017
653;2.256989700000304;2016
654;2.2596459999995204;2015
655;2.2636107999996966;2014
656;2.267453899999964;2012
657;2.2704211999998734;2011
658;2.2732537000001685;2010
659;2.276455299999725;2009
660;2.280456399999821;2008
661;2.284458399999494;2007
662;2.2884548000001814;2005
663;2.2924551999994947;2004
664;2.2964305999994394;2003
665;2.3004221999999572;2002
666;2.3033978000003117;2002
667;2.306263499999659;2001
668;2.3104278000000704;2000
669;2.313448299999436;1998
670;2.3164428999998563;1998
671;2.31945050000013;1998
672;2.3223965999995926;1998
673;2.3253076000000874;1997
674;2.3294481000002634;1997
675;2.332434199999625;1997
676;2.336559800000032;1996
677;2.3403519000003143;1996
678;2.3433764000001247;1995
679;2.346419700000297;1995
680;2.349395999999615;1995
681;2.3524421000001894;1995
682;2.3554292999997415;1995
683;2.358158999999432;1995
684;2.3614496000000145;1994
685;2.3644438000001173;1995
686;2.367452200000116;1994
687;2.370443900000282;1995
688;2.3731359000003067;1995
689;2.3762643000000025;1995
690;2.379257900000084;1996
691;2.382251600000018;1996
692;2.385684400000173;1996
693;2.389345599999615;1996
694;2.392303699999502;1997
695;2.395320300000094;1997
696;2.398286999999982;1998
697;2.40129590000015;1998
698;2.4043343000003006;1999
699;2.4074147999999695;1999
700;2.4104256000000532;2000
701;2.413426199999776;2000
702;2.4174252000002525;2001
703;2.420424899999489;2002
704;2.4232020999997985;2002
705;2.4262815000001865;2003
706;2.4294309999995676;2004
707;2.432426200000009;2005
708;2.436424200000147;2006
709;2.4392017000000124;2007
710;2.4424254999994446;2008
711;2.4454413000003115;2009
712;2.448418500000116;2010
713;2.4514265999996496;2011
714;2.4541393999998036;2012
715;2.4574579999998605;2013
716;2.460428200000024;2015
717;2.4633922000002713;2016
718;2.466423599999871;2017
719;2.4693891999995685;2018
