;time;amplitude
0;0.004528499999651103;2490
1;0.00862059999963094;2489
2;0.013644399999975576;2488
3;0.017307999998593004;2487
4;0.02167389999885927;2486
5;0.02577019999989716;2485
6;0.030234500000005937;2483
7;0.033535399999891524;2482
8;0.037179199998718104;2481
9;0.04167059999963385;2480
10;0.04508919999898353;2479
11;0.048098299999765004;2478
12;0.0527087999998912;2477
13;0.057222199999159784;2475
14;0.0612394999989192;2474
15;0.06412079999972775;2474
16;0.06738789999872097;2473
17;0.07119789999887871;2472
18;0.0754956000000675;2471
19;0.08013479999863193;2469
20;0.08344209999995655;2468
21;0.08753399999841349;2467
22;0.09146389999841631;2465
23;0.09502989999964484;2464
24;0.09790029999930994;2463
25;0.1009684999989986;2462
26;0.10437639999872772;2461
27;0.10748409999905562;2461
28;0.11105049999969197;2461
29;0.1140170999988186;2460
30;0.11690689999886672;2459
31;0.11988879999989877;2458
32;0.12344559999837657;2458
33;0.12744689999999537;2457
34;0.13005579999844485;2456
35;0.1331938999992417;2455
36;0.13635900000008405;2454
37;0.1401983999985532;2453
38;0.14319219999924826;2451
39;0.1458076999988407;2450
40;0.14777979999962554;2450
41;0.15111759999854257;2449
42;0.1541345999994519;2448
43;0.15713709999909042;2447
44;0.16020359999856737;2446
45;0.16334009999991395;2446
46;0.1661320999992313;2444
47;0.16912830000001122;2444
48;0.17193999999835796;2442
49;0.17500599999948463;2441
50;0.17932199999995646;2440
51;0.18338020000010147;2438
52;0.18739279999863356;2437
53;0.19116099999882863;2435
54;0.19518869999956223;2434
55;0.19798219999938738;2432
56;0.20108970000001136;2431
57;0.20395499999904132;2430
58;0.20688609999888286;2430
59;0.21045279999998456;2429
60;0.21281180000005406;2428
61;0.21588109999902372;2427
62;0.21934030000011262;2426
63;0.22342309999839927;2424
64;0.22750519999863172;2422
65;0.22972499999923457;2421
66;0.23284089999833668;2420
67;0.23617209999974875;2420
68;0.23915479999959643;2418
69;0.242152899998473;2418
70;0.2448430999993434;2417
71;0.2481419999985519;2416
72;0.2509552999999869;2415
73;0.2540973999984999;2414
74;0.25709809999898425;2413
75;0.2601137000001472;2411
76;0.262989099999686;2410
77;0.2664136999992479;2409
78;0.27041259999896283;2408
79;0.27439419999973325;2407
80;0.27796009999838134;2406
81;0.28085549999923387;2405
82;0.28517509999983304;2403
83;0.2883459999993647;2402
84;0.2909724000001006;2400
85;0.29387839999981225;2400
86;0.2970265999992989;2399
87;0.300369699998555;2398
88;0.30320909999863943;2397
89;0.306103399998392;2396
90;0.30908369999997376;2395
91;0.31188299999848823;2394
92;0.3150491999986116;2393
93;0.31818159999966156;2392
94;0.32107749999886437;2391
95;0.32404940000014903;2390
96;0.327009900000121;2389
97;0.33007809999980964;2389
98;0.3334490999986883;2388
99;0.335983999999371;2387
100;0.33899599999858765;2386
101;0.3419888999997056;2385
102;0.34473179999986314;2383
103;0.3471510999988823;2383
104;0.3500497999993968;2382
105;0.3530470999994577;2381
106;0.3560526999990543;2380
107;0.35910019999937504;2379
108;0.3618289999994886;2378
109;0.36483859999862034;2378
110;0.36779439999918395;2377
111;0.3698129999993398;2376
112;0.3716614999993908;2375
113;0.3737121999984083;2375
114;0.37562509999952454;2374
115;0.3776717999990069;2374
116;0.3808589000000211;2373
117;0.38431779999882565;2372
118;0.3873309999999037;2371
119;0.3903167999997095;2371
120;0.39404189999913797;2370
121;0.39677859999937937;2369
122;0.40016709999872546;2368
123;0.4031467999993765;2368
124;0.40617589999965276;2367
125;0.40900739999960933;2366
126;0.41175269999985176;2366
127;0.4149976999997307;2365
128;0.4179590999992797;2364
129;0.4209629999986646;2364
130;0.4240040999993653;2363
131;0.4269064000000071;2362
132;0.4290348999984417;2361
133;0.4318100000000413;2361
134;0.4337984999983746;2360
135;0.4357934999989084;2360
136;0.4378363999985595;2359
137;0.4409756999993988;2359
138;0.4436774999994668;2358
139;0.4457808999995905;2358
140;0.44893239999873913;2357
141;0.4519449999988865;2357
142;0.45497839999916323;2356
143;0.4580967999991117;2355
144;0.4607022000000143;2354
145;0.4628862999998091;2353
146;0.4647439000000304;2353
147;0.46687329999986105;2352
148;0.4690026999996917;2352
149;0.471883499998512;2352
150;0.47491359999912675;2352
151;0.477834499999517;2351
152;0.4812191000000894;2350
153;0.48522330000014335;2350
154;0.4882004999999481;2349
155;0.49088559999836434;2349
156;0.49393639999834704;2348
157;0.49687989999983984;2348
158;0.5001952999991772;2348
159;0.5031476999993174;2348
160;0.505876499999431;2348
161;0.5089755999997578;2348
162;0.5120895000000019;2348
163;0.5148224999993545;2347
164;0.5179500999984157;2347
165;0.5207675000001473;2347
166;0.5239286999985779;2347
167;0.526925599999231;2347
168;0.5298099999999977;2346
169;0.531772499998624;2347
170;0.5349680999988777;2347
171;0.5379391999995278;2347
172;0.5411248999989766;2347
173;0.5437365999987378;2347
174;0.545732799999314;2347
175;0.5489950999999564;2347
176;0.5521279999993567;2347
177;0.5549799999989773;2347
178;0.5578807999991113;2347
179;0.5607788999986951;2347
180;0.5628982999987784;2347
181;0.5648203000000649;2347
182;0.5670144999985496;2346
183;0.5700806999993802;2346
184;0.5729753999985405;2347
185;0.576033199999074;2347
186;0.5787477999983821;2346
187;0.5821328999991238;2346
188;0.58512299999893;2347
189;0.5881227999998373;2347
190;0.5911481999992247;2347
191;0.5937550999988161;2347
192;0.5960230999990017;2347
193;0.5991650999985723;2347
194;0.6021098000001075;2347
195;0.6051229999993666;2347
196;0.608123500000147;2347
197;0.6107056000000739;2348
198;0.613782499998706;2348
199;0.617156199999954;2348
200;0.6201169999985723;2348
201;0.623130999998466;2349
202;0.6260600999994494;2349
203;0.6288782999999967;2349
204;0.6317525999984355;2350
205;0.6353955999984464;2350
206;0.6391743999993196;2350
207;0.642185699998663;2351
208;0.6448740999985603;2351
209;0.6468115999996371;2351
210;0.6500508999997692;2351
211;0.6530503999983921;2352
212;0.656046599999172;2352
213;0.659111999999368;2353
214;0.6620870999995532;2353
215;0.6652767999985372;2354
216;0.6683352999989438;2354
217;0.67101619999994;2355
218;0.6739966999994067;2355
219;0.6770008999992569;2356
220;0.679885399998966;2356
221;0.6834015999993426;2357
222;0.687444899998809;2358
223;0.6913832999998704;2358
224;0.6950545999989117;2359
225;0.6980053999996017;2359
226;0.7010313999999198;2360
227;0.7040691999991395;2360
228;0.7070711999986088;2361
229;0.7100553999989643;2362
230;0.7116372999989835;2362
231;0.7138553999993746;2363
232;0.717295299999023;2364
233;0.7203234999997221;2365
234;0.7229852999989816;2365
235;0.7260752999991382;2366
236;0.7289964999999938;2366
237;0.7320521000001463;2367
238;0.7350560999984737;2367
239;0.7379918999995425;2368
240;0.7409935999985464;2368
241;0.7437224999994214;2369
242;0.7468131999994512;2370
243;0.7504657999998017;2371
244;0.7540974999992613;2372
245;0.7570526999988942;2372
246;0.7600194999995438;2373
247;0.763082099998428;2374
248;0.7664485999994213;2375
249;0.7700439999989612;2376
250;0.7730745999997453;2377
251;0.7760703999992984;2378
252;0.7791701999994984;2379
253;0.7822928999994474;2380
254;0.7863034999991214;2381
255;0.7892348999994283;2382
256;0.7932360999984667;2383
257;0.7962629999983619;2383
258;0.7991898999989644;2384
259;0.8021726999995735;2385
260;0.8050390999997035;2386
261;0.8078870999997889;2388
262;0.8110151999990194;2388
263;0.8139020999988134;2389
264;0.8169036999988748;2390
265;0.8198705999984668;2391
266;0.8230170999995607;2391
267;0.8259669999988546;2392
268;0.8289497999994637;2393
269;0.8322051999984978;2394
270;0.8353430999995908;2394
271;0.8383327999999892;2395
272;0.8411507000000711;2395
273;0.8438212000000931;2396
274;0.8467647999987093;2397
275;0.8500219999987166;2397
276;0.8530186999996658;2398
277;0.8560487999984616;2399
278;0.859050600000046;2400
279;0.8618080999985978;2400
280;0.8649544999989303;2401
281;0.8679753999986133;2402
282;0.8709638999989693;2402
283;0.873977899998863;2403
284;0.8769272999998066;2405
285;0.8801810999993904;2405
286;0.8831222999997408;2407
287;0.8861155999984476;2408
288;0.8892459999988205;2409
289;0.8930851999994047;2411
290;0.8965494999993098;2412
291;0.9003162999997585;2414
292;0.9033132999993541;2415
293;0.9063017999997101;2417
294;0.9093067999983759;2418
295;0.9118607999989763;2419
296;0.9153835999986768;2420
297;0.9193210999983421;2422
298;0.9223578999990423;2423
299;0.9263684999987163;2424
300;0.929014699999243;2426
301;0.9329533000000083;2427
302;0.9360397000000376;2429
303;0.9390413999990415;2430
304;0.9420353999994404;2432
305;0.9448339999999007;2433
306;0.9484167999999045;2434
307;0.9520390999987285;2435
308;0.9549896999997145;2437
309;0.9579751999990549;2438
310;0.9608916999986832;2439
311;0.9641114999994898;2440
312;0.967172999999093;2441
313;0.971211799998855;2443
314;0.9752037999987806;2444
315;0.9789083999985451;2446
316;0.9824167999995552;2447
317;0.9860292999983358;2448
318;0.9892316999994364;2449
319;0.992321699999593;2451
320;0.9947939999983646;2452
321;0.9981687999988935;2453
322;1.0013229999985924;2454
323;1.004312299999583;2455
324;1.0073121999994328;2456
325;1.01041929999883;2457
326;1.0131683999989036;2458
327;1.0163046999987273;2460
328;1.019303699999;2460
329;1.0222999999987223;2462
330;1.0253869999996823;2463
331;1.0292157999992924;2465
332;1.0330192999990686;2467
333;1.0361322999997356;2468
334;1.0391442000000097;2470
335;1.042132099999435;2471
336;1.0448685999999725;2472
337;1.0481147999998939;2473
338;1.0510429999994813;2475
339;1.05392589999974;2476
340;1.0569382999983645;2477
341;1.0599327999989328;2478
342;1.0631900999997015;2479
343;1.0661794999996346;2480
344;1.0691883999988931;2481
345;1.0720146999992721;2481
346;1.075099899999259;2482
347;1.077758299999914;2483
348;1.081099600000016;2484
349;1.0840815999999904;2485
350;1.087344599998687;2486
351;1.0901509999985137;2486
352;1.0928742999985843;2487
353;1.0947254999991856;2487
354;1.0981245999992097;2488
355;1.1011354999991454;2488
356;1.10412389999874;2488
357;1.1071584000001167;2488
358;1.1101177999989886;2489
359;1.113013599999249;2489
360;1.1159823999987566;2490
361;1.1188315999988845;2490
362;1.120806499999162;2491
363;1.12282359999881;2491
364;1.1249367000000348;2492
365;1.1278831999989052;2492
366;1.1311951999996381;2493
367;1.134181899999021;2494
368;1.1371125999994547;2495
369;1.140187099999821;2496
370;1.1439368999999715;2497
371;1.14737199999945;2499
372;1.150341999999;2499
373;1.1532745999993494;2500
374;1.1561836000000767;2501
375;1.1589948000000732;2502
376;1.1618120999992243;2502
377;1.1651660999996238;2503
378;1.1680022000000463;2505
379;1.1707652999994025;2505
380;1.1740384999993694;2506
381;1.1769992999998067;2507
382;1.1800148999991507;2508
383;1.183043799999723;2509
384;1.1858574999987468;2509
385;1.189075899999807;2509
386;1.19202999999834;2510
387;1.1947200999984489;2510
388;1.1980225999996037;2510
389;1.2008011999987502;2511
390;1.2040405999996437;2511
391;1.207013499999448;2511
392;1.2100113999986206;2512
393;1.2133284999999887;2512
394;1.2174083999998402;2512
395;1.2212713999997504;2512
396;1.2239617999985057;2513
397;1.22705809999934;2513
398;1.2299898000001122;2513
399;1.2331579000001511;2513
400;1.2360062999996444;2513
401;1.2388565999990533;2513
402;1.2420500999996875;2513
403;1.2450687999989896;2513
404;1.247850699999617;2514
405;1.2510432999988552;2514
406;1.2538140999986354;2514
407;1.2570610999991914;2514
408;1.259909599999446;2514
409;1.2628577999985282;2514
410;1.2664647999990848;2515
411;1.270232799999576;2515
412;1.2730653999988135;2515
413;1.276230099998429;2515
414;1.2791141999987303;2515
415;1.2820109999993292;2515
416;1.285235899998952;2515
417;1.288120399998661;2515
418;1.2908845999991172;2515
419;1.2936750999997457;2515
420;1.2967262999991362;2515
421;1.2987034999987372;2515
422;1.3007247999994433;2515
423;1.3027408999987529;2515
424;1.304981499999485;2515
425;1.3078893999991124;2515
426;1.3106737999987672;2515
427;1.3138548999995692;2515
428;1.3158198999990418;2515
429;1.3188259999988077;2515
430;1.3220261999995273;2515
431;1.3249849999992875;2515
432;1.3278636999984883;2515
433;1.3313789999992878;2515
434;1.3353577999987465;2515
435;1.3383501999996952;2515
436;1.341348999998445;2514
437;1.3437866999993275;2514
438;1.3471250999991753;2514
439;1.3500977999992756;2514
440;1.3529901999991125;2514
441;1.356114099999104;2514
442;1.3591705999988335;2514
443;1.3621343999984674;2514
444;1.3648561999998492;2514
445;1.367860099999234;2514
446;1.3709043999988353;2514
447;1.3741710999984207;2513
448;1.376909999999043;2513
449;1.379105599999093;2513
450;1.3821391000001313;2513
451;1.3851458999997703;2512
452;1.3881011999983457;2512
453;1.3909016999987216;2511
454;1.3937645999994857;2510
455;1.3960736999997607;2509
456;1.4002412999998342;2508
457;1.4042505999987043;2508
458;1.4084117999991577;2507
459;1.411980199998652;2506
460;1.4152723999995942;2505
461;1.4192069000000629;2504
462;1.4223266999997577;2503
463;1.425325199999861;2503
464;1.4299634999988484;2502
465;1.4333724999996775;2501
466;1.4372239999993326;2500
467;1.441174300000057;2498
468;1.4449451999989833;2497
469;1.4482129999996687;2496
470;1.4522441999997682;2495
471;1.4553524999992078;2494
472;1.4583993999985978;2493
473;1.4623355999992782;2492
474;1.4650861999998597;2491
475;1.468087100000048;2491
476;1.471109999998589;2490
477;1.474329899998338;2489
478;1.4771148999989236;2488
479;1.4803904999989754;2488
480;1.4843451999986428;2487
481;1.4873487999993813;2485
482;1.490323799998805;2485
483;1.4931781999985105;2484
484;1.4960993999993661;2483
485;1.4989528999994945;2482
486;1.5019393999991735;2481
487;1.5048915999996098;2480
488;1.5080522999996901;2479
489;1.5109385999985534;2478
490;1.5143585999994684;2477
491;1.517391099998349;2476
492;1.5203824000000168;2476
493;1.5243536999987555;2475
494;1.5278519999992568;2474
495;1.531381799999508;2473
496;1.5353875000000698;2472
497;1.5389576999987185;2471
498;1.5418824999997014;2470
499;1.5436966999986907;2469
500;1.5458175999992818;2468
501;1.5477776999996422;2468
502;1.5510101999989274;2467
503;1.5544346999995469;2466
504;1.5578830999984348;2465
505;1.560993099999905;2464
506;1.5640568999988318;2463
507;1.5669781999986299;2462
508;1.569985699999961;2461
509;1.573018699999011;2460
510;1.5760092999989865;2459
511;1.5779332999991311;2458
512;1.5808651999996073;2458
513;1.5827332999997452;2457
514;1.5846887999996397;2456
515;1.586732399999164;2456
516;1.588761399998475;2455
517;1.5907217999993009;2454
518;1.5928749999984575;2454
519;1.5958191999998235;2453
520;1.5987981999987824;2452
521;1.6013523000001442;2451
522;1.6040895999994973;2450
523;1.6074244999999792;2449
524;1.6109428999989177;2448
525;1.6139962999986892;2447
526;1.6169024999999237;2445
527;1.6188536999998178;2444
528;1.6219884999991336;2443
529;1.6251265999999305;2442
530;1.627884699999413;2441
531;1.6308662999999797;2440
532;1.633961099998487;2439
533;1.6368327000000136;2438
534;1.6399758999996266;2437
535;1.6431822999984433;2436
536;1.6457664999998087;2435
537;1.6479999999992287;2434
538;1.6508324999995239;2433
539;1.6539650999984588;2432
540;1.6568247999985033;2431
541;1.6590753000000404;2429
542;1.6619558999991568;2429
543;1.6651659999988624;2428
544;1.6679624999997031;2426
545;1.670823599999494;2425
546;1.6731342999992194;2424
547;1.6759841999992204;2423
548;1.6788527999997314;2422
549;1.6820662999998603;2421
550;1.6848097999991296;2419
551;1.6879949999984092;2418
552;1.6911347999994177;2417
553;1.6938183999991452;2415
554;1.6958330999987083;2414
555;1.6987997999985964;2413
556;1.702010799999698;2412
557;1.7047996999990573;2411
558;1.7080522999985988;2410
559;1.7107182999989163;2409
560;1.7126648999983445;2408
561;1.7150301999990916;2407
562;1.7181391999984044;2406
563;1.7210071999998036;2405
564;1.724045399998431;2404
565;1.7269182;2403
566;1.729792099999031;2402
567;1.7327498999984527;2402
568;1.7359254999992118;2400
569;1.7388136999998096;2400
570;1.7407951999994111;2399
571;1.743011699998533;2399
572;1.7450074999997014;2398
573;1.747915899999498;2397
574;1.7509858999983408;2396
575;1.7541708999997354;2395
576;1.7569958999993105;2394
577;1.759798299999602;2393
578;1.7620454999996582;2393
579;1.7649884999991627;2392
580;1.7681150999997044;2391
581;1.771031899999798;2390
582;1.7739062999989983;2389
583;1.7768782999992254;2388
584;1.7789964999992662;2387
585;1.782038699999248;2387
586;1.7850522999997338;2386
587;1.788136699999086;2385
588;1.7910443999990093;2384
589;1.7937661999985721;2383
590;1.7960082999998122;2382
591;1.7989178999996511;2382
592;1.8019174999990355;2381
593;1.8038457999991806;2380
594;1.8068981999986136;2379
595;1.8091595999994752;2379
596;1.8119446999990032;2378
597;1.81486859999859;2377
598;1.8178695999995398;2376
599;1.8208247999991727;2376
600;1.8240119999991293;2375
601;1.8268673999991734;2374
602;1.828901799999585;2373
603;1.8319676999999501;2373
604;1.8348630000000412;2372
605;1.8379464999998163;2372
606;1.8412197999987256;2371
607;1.8438112999992882;2371
608;1.8458338999989792;2370
609;1.8477775999999722;2370
610;1.8499299999984942;2370
611;1.8518633999992744;2369
612;1.854820299999119;2369
613;1.8580623999987438;2368
614;1.8607603999989806;2367
615;1.8629189999992377;2367
616;1.8660197999997763;2366
617;1.8688589999983378;2366
618;1.8720624999987194;2365
619;1.8751354999985779;2364
620;1.8778183999984321;2364
621;1.8800316999986535;2363
622;1.8828674999986106;2362
623;1.8859198999998625;2362
624;1.8888493999984348;2361
625;1.8918426000000181;2361
626;1.895102999998926;2361
627;1.8981583999993745;2360
628;1.9009724999996251;2359
629;1.904027299999143;2359
630;1.9068735000000743;2359
631;1.9097927999991953;2358
632;1.9120760999994673;2357
633;1.9149875999992219;2357
634;1.9180827000000136;2356
635;1.9210085999984585;2355
636;1.9238736999996036;2355
637;1.9267869999985123;2354
638;1.9289840999990702;2354
639;1.9321636999993643;2354
640;1.935048999999708;2354
641;1.937983699999677;2353
642;1.9408537999988766;2353
643;1.943815699998595;2353
644;1.9458994999986317;2352
645;1.9490054999987478;2352
646;1.9519001999997272;2352
647;1.9549932999998418;2352
648;1.9578944999993837;2351
649;1.9607597999984137;2351
650;1.9638963999987027;2351
651;1.9660901999995986;2350
652;1.9689462999995158;2350
653;1.9719422999987728;2350
654;1.9748443999997107;2350
655;1.9768838999989384;2350
656;1.978979999999865;2350
657;1.9819180999984383;2350
658;1.9848179999989952;2351
659;1.987991999998485;2351
660;1.991674699998839;2351
661;1.9951163999994606;2351
662;1.9978591999988566;2351
663;2.0001710999986244;2351
664;2.002986499999679;2351
665;2.005859099999725;2351
666;2.0089957999989565;2351
667;2.0118440999995073;2351
668;2.0148680999991484;2351
669;2.0179422999990493;2351
670;2.0210385999998834;2351
671;2.023953199999596;2351
672;2.02683739999884;2352
673;2.028854299998784;2352
674;2.0319061999998667;2352
675;2.034826499999326;2352
676;2.0367649999989226;2352
677;2.0387670999989496;2352
678;2.0417889000000287;2352
679;2.043817499999932;2352
680;2.046947899998486;2352
681;2.0503305999991426;2352
682;2.052946499999962;2352
683;2.056312299999263;2352
684;2.059477599999809;2352
685;2.0623023999996803;2352
686;2.0652737999989768;2353
687;2.0684314999998605;2353
688;2.072262799998498;2353
689;2.0754268999990018;2353
690;2.077905899999678;2353
691;2.0808284999984608;2354
692;2.0839511999984097;2354
693;2.0866986000000907;2354
694;2.088930399999299;2354
695;2.090867499999149;2355
696;2.0929743999986385;2355
697;2.0959452999995847;2355
698;2.0978587999998126;2355
699;2.1007612999983394;2355
700;2.102876799999649;2356
701;2.1048836999998457;2356
702;2.107723999999507;2357
703;2.109807400000136;2357
704;2.1120058999986213;2357
705;2.114770199999839;2358
706;2.1167761999986396;2358
707;2.1189245999994455;2359
708;2.121923999999126;2360
709;2.1239166999985173;2360
710;2.1267645999996603;2360
711;2.12898529999984;2361
712;2.131915799998751;2361
713;2.1338113999991037;2362
714;2.135922199999186;2362
715;2.1389378999992914;2363
716;2.1407586999994237;2363
717;2.142952199999854;2364
718;2.1448302999997395;2364
