;time;amplitude
0;0.003913099999408587;891
1;0.007949599999847123;881
2;0.011643199999525677;868
3;0.015922099999443162;856
4;0.019925599999623955;844
5;0.02353949999996985;830
6;0.026683399999456014;822
7;0.029691199999433593;814
8;0.03262499999982538;806
9;0.035647599999720114;798
10;0.03864439999961178;791
11;0.041644999999334686;782
12;0.04467639999984385;776
13;0.04765349999979662;768
14;0.05062219999945228;761
15;0.05365819999951782;754
16;0.05662010000014561;747
17;0.05961479999950825;741
18;0.06262809999952879;735
19;0.06555239999943296;729
20;0.06855970000015077;724
21;0.07155259999944974;718
22;0.07460189999983413;712
23;0.07757479999963834;706
24;0.08055489999969723;702
25;0.08358299999963492;696
26;0.08657379999931436;691
27;0.08960599999954866;687
28;0.09260439999980008;682
29;0.09559019999960583;677
30;0.09860140000000683;674
31;0.10157989999970596;669
32;0.10463789999994333;666
33;0.10871029999998427;662
34;0.1113932999996905;658
35;0.11472210000010818;655
36;0.11759449999954086;652
37;0.12061670000002778;650
38;0.12368890000016108;648
39;0.1266795000001366;646
40;0.12969069999962812;644
41;0.13368619999982911;643
42;0.13669239999944693;642
43;0.1396825000001627;641
44;0.1426882999994632;641
45;0.14642079999975977;641
46;0.14962329999980284;641
47;0.15371460000005754;642
48;0.15655729999980394;642
49;0.15957040000012057;644
50;0.1625702999999703;645
51;0.16556039999977656;646
52;0.1685643999999229;648
53;0.17156019999947603;650
54;0.17456169999968552;653
55;0.17744369999945775;656
56;0.18055860000004031;658
57;0.18356519999997545;662
58;0.18655859999944369;665
59;0.18955909999931464;669
60;0.19255189999967115;673
61;0.19532929999968474;677
62;0.19856559999971068;682
63;0.20155739999972866;686
64;0.20455799999945157;691
65;0.20755929999995715;696
66;0.2103373999998439;700
67;0.21332099999926868;705
68;0.21679829999993672;712
69;0.22087399999963964;717
70;0.22478449999925942;726
71;0.2284308999996938;734
72;0.2327977999993891;742
73;0.23688039999979082;751
74;0.2408568999999261;761
75;0.2432911999994758;769
76;0.24627139999938663;774
77;0.24984809999932622;783
78;0.2538549000000785;793
79;0.2573591000000306;803
80;0.260835600000064;811
81;0.263521299999411;820
82;0.26748479999969277;829
83;0.27079719999983354;839
84;0.274493199999597;849
85;0.27847879999990255;861
86;0.28271889999996347;873
87;0.28574829999979556;884
88;0.28837799999928393;894
89;0.29137420000006387;903
90;0.29441399999996065;912
91;0.2975511999993614;921
92;0.30056019999938144;933
93;0.30354540000007546;943
94;0.3066001999995933;953
95;0.309591499999442;964
96;0.3125397999992856;975
97;0.3155741999999009;985
98;0.3185820999997304;996
99;0.3215759999993679;1007
100;0.3245831999993243;1018
101;0.327405699999872;1029
102;0.33060699999987264;1039
103;0.3336061999998492;1054
104;0.336606999999276;1066
105;0.3396084999994855;1077
106;0.3426097999999911;1090
107;0.34529939999993076;1101
108;0.3484019999996235;1111
109;0.35141269999985525;1125
110;0.3543726999996579;1136
111;0.3579805999997916;1149
112;0.3623297999993156;1172
113;0.3656130999997913;1184
114;0.3687787999997454;1200
115;0.3717986000001474;1213
116;0.3745820999993157;1227
117;0.3776386999998067;1240
118;0.38055899999926623;1252
119;0.38356019999991986;1266
120;0.38655930000004446;1280
121;0.3895628000000215;1295
122;0.3924054999997679;1309
123;0.3952054000001226;1322
124;0.39836769999965327;1336
125;0.40137139999933424;1350
126;0.4049863000000187;1364
127;0.40895189999992;1386
128;0.4126535999994303;1406
129;0.4157774999994217;1423
130;0.41860709999946266;1438
131;0.42162459999963176;1453
132;0.4245686999993268;1469
133;0.4276311999992686;1482
134;0.4305540999994264;1498
135;0.43355719999999565;1513
136;0.436362200000076;1529
137;0.4383526999999958;1541
138;0.44120359999942593;1554
139;0.4433779000000868;1568
140;0.44638209999993705;1580
141;0.449972099999286;1596
142;0.4539619999995921;1617
143;0.45785650000016176;1639
144;0.46152299999994284;1659
145;0.4647783000000345;1679
146;0.46778469999935623;1696
147;0.47060830000009446;1712
148;0.4743810999998459;1732
149;0.477399699999296;1748
150;0.48037099999964994;1766
151;0.4835551999995005;1783
152;0.48655989999952;1802
153;0.49049079999986134;1823
154;0.4934023999994679;1840
155;0.49660579999999754;1857
156;0.49960920000012266;1877
157;0.5025976999995692;1892
158;0.5056186000001617;1909
159;0.5085721999994348;1929
160;0.5112879999996949;1945
161;0.5146101000000272;1960
162;0.5175972999995793;1981
163;0.5203047999993942;1997
164;0.5234191999998075;2013
165;0.5266302999998516;2032
166;0.5296141999997417;2050
167;0.5324626999999964;2068
168;0.5351596000000427;2086
169;0.537378500000159;2100
170;0.5402041999996072;2113
171;0.5423823999999513;2130
172;0.5452162000001408;2143
173;0.5473748999993404;2159
174;0.5504590000000462;2174
175;0.553376699999717;2190
176;0.5569629999999961;2210
177;0.561033299999508;2233
178;0.5638079000000289;2255
179;0.5678557999999612;2274
180;0.5716412000001583;2298
181;0.5746192999995401;2320
182;0.5777156999993167;2339
183;0.580570600000101;2354
184;0.5844720999994024;2377
185;0.5875751999992644;2395
186;0.5906009999998787;2415
187;0.5935970000000452;2433
188;0.5966091999998753;2449
189;0.5996049999994284;2467
190;0.6025732999996762;2485
191;0.6056086999997206;2503
192;0.6086097999996127;2521
193;0.6113156999999774;2539
194;0.6145983999995224;2557
195;0.6176101999999446;2576
196;0.6206001999998989;2593
197;0.6236009999993257;2613
198;0.626584499999808;2631
199;0.6293078999997306;2647
200;0.632389599999442;2665
201;0.6356685999999172;2682
202;0.6398358999995253;2704
203;0.6438353999992614;2729
204;0.6482814000000872;2753
205;0.6518061999995552;2780
206;0.6562784999996438;2801
207;0.6597861000000194;2828
208;0.6637774000000718;2849
209;0.6678148000000874;2876
210;0.6723029999993742;2896
211;0.676829899999575;2923
212;0.6813051999997697;2950
213;0.6848180999995748;2974
214;0.6891889999997147;2993
215;0.6928440000001501;3018
216;0.6969831999995222;3040
217;0.7010026999996626;3065
218;0.704997199999525;3087
219;0.7085288999996919;3112
220;0.7125061999995523;3132
221;0.7157935999994152;3152
222;0.7200511999999435;3171
223;0.7239308999996865;3196
224;0.7281187999997201;3217
225;0.7319410000000062;3240
226;0.7359593999999561;3262
227;0.7397076999995988;3285
228;0.7440212000001338;3306
229;0.7479776000000129;3326
230;0.751917799999319;3350
231;0.7555398999993486;3369
232;0.7599615999997695;3390
233;0.7639521999999488;3411
234;0.7679582000000664;3432
235;0.7714931000000433;3454
236;0.7759824999993725;3472
237;0.7797137999996266;3495
238;0.7839516999993066;3513
239;0.787404300000162;3533
240;0.7907440999997561;3549
241;0.7948927999996158;3567
242;0.797546799999509;3586
243;0.8018696999997701;3601
244;0.805498799999441;3622
245;0.8088680999999269;3638
246;0.812440400000014;3654
247;0.8157163999994737;3671
248;0.8187158000000636;3685
249;0.8217100000001665;3699
250;0.82482600000003;3713
251;0.8284671000001254;3730
252;0.8315595999993093;3746
253;0.8348630000000412;3759
254;0.8390269999999873;3775
255;0.842999399999826;3793
256;0.8464993999996295;3809
257;0.8495193999997355;3824
258;0.8540087000001222;3841
259;0.8580085999992662;3857
260;0.8615257000001293;3874
261;0.8649222999993071;3887
262;0.8689285000000382;3901
263;0.8729770999998436;3917
264;0.8770200999997542;3933
265;0.8809198999997534;3947
266;0.8847286000000167;3963
267;0.8887834999995903;3977
268;0.8914985999999772;3991
269;0.895457699999497;4002
270;0.9000280999998722;4017
271;0.9039966000000277;4032
272;0.9080478999994739;4044
273;0.91158009999981;4059
274;0.9160455000001093;4070
275;0.9201198999999178;4084
276;0.9250277000001006;4100
277;0.9284303999993426;4113
278;0.9320262999999613;4122
279;0.9359971999992922;4134
280;0.9400476000000708;4144
281;0.9440595999994912;4155
282;0.9480263999994349;4167
283;0.9519959999997809;4178
284;0.956043299999692;4188
285;0.9600209999998697;4198
286;0.964026699999522;4207
287;0.9679931000000579;4217
288;0.9720484999998007;4225
289;0.9760403999998744;4234
290;0.9799906999996892;4242
291;0.9839274999994814;4250
292;0.9879541999998764;4257
293;0.9904575999998997;4263
294;0.9939162000000579;4268
295;0.9966679999997723;4274
296;0.9997448999993139;4278
297;1.003965399999288;4283
298;1.0089663999997356;4290
299;1.012528199999906;4294
300;1.0159012999993138;4297
301;1.019873799999914;4300
302;1.0239536999997654;4302
303;1.0280112999998892;4303
304;1.0319429000001037;4305
305;1.0360658999998122;4305
306;1.0399603999994724;4305
307;1.0439820000001419;4304
308;1.04659139999967;4303
309;1.0496662999994442;4301
310;1.052694999999403;4299
311;1.056989299999259;4296
312;1.0610166999995272;4292
313;1.0649929999999586;4288
314;1.0689664999999877;4282
315;1.0729572999998709;4276
316;1.07699059999959;4269
317;1.079671899999994;4262
318;1.082730499999343;4257
319;1.087001599999894;4251
320;1.091016999999738;4243
321;1.0949006999999256;4236
322;1.0988688999996157;4227
323;1.1030033999995794;4219
324;1.106952000000092;4210
325;1.1110043999997288;4201
326;1.1145728000001327;4190
327;1.1179628999998386;4183
328;1.1219891999999163;4174
329;1.1260489999995116;4164
330;1.1298841999996512;4152
331;1.1339773999998215;4142
332;1.1379915999996228;4131
333;1.1419950999998036;4120
334;1.145438199999262;4108
335;1.1489560999998503;4098
336;1.153002999999444;4087
337;1.1570358999997552;4073
338;1.161037399999259;4061
339;1.1649914999998146;4048
340;1.1689919000000373;4035
341;1.1729998999999225;4021
342;1.1769949999998062;4005
343;1.1809976999993523;3992
344;1.1849609000000783;3976
345;1.1889791999992667;3962
346;1.192997000000105;3948
347;1.1964726999995037;3933
348;1.1993142000001171;3920
349;1.2012980999998035;3910
350;1.2032523999996556;3903
351;1.206177199999729;3893
352;1.2082479000000603;3883
353;1.211247700000058;3874
354;1.2132689000000028;3863
355;1.2163014999996449;3855
356;1.2185743000000002;3842
357;1.2216069999994943;3832
358;1.2243270999997549;3819
359;1.2262842000000092;3808
360;1.228277799999887;3800
361;1.2318457000001217;3789
362;1.2358799999992698;3773
363;1.2398991000000024;3755
364;1.242290499999399;3740
365;1.2442829999999958;3730
366;1.247577199999796;3720
367;1.2505707999998776;3705
368;1.2535675999997693;3692
369;1.2566092999995817;3678
370;1.2595996999998533;3665
371;1.262616899999557;3651
372;1.2654634999998962;3636
373;1.2686014999999315;3624
374;1.2713772999995854;3609
375;1.2746059999999488;3595
376;1.2775919999994585;3580
377;1.280602199999521;3565
378;1.2836006999996243;3552
379;1.2862805999993725;3537
380;1.289419199999429;3524
381;1.2924746999997296;3507
382;1.2954783999994106;3491
383;1.2986332000000402;3476
384;1.3016388999994888;3462
385;1.304525399999875;3445
386;1.307539899999938;3432
387;1.3106078000000707;3417
388;1.3136111999992863;3401
389;1.3166160000000673;3383
390;1.319294599999921;3367
391;1.3225873999999749;3354
392;1.3255621999996947;3334
393;1.3282430999997814;3319
394;1.3315671999998813;3301
395;1.334490299999743;3287
396;1.3375563999998121;3270
397;1.3405585000000428;3254
398;1.3435598999994909;3237
399;1.3464426000000458;3221
400;1.3493805999996766;3204
401;1.352375800000118;3188
402;1.3553775000000314;3168
403;1.3584018000001379;3153
404;1.361189899999772;3135
405;1.3633571999998821;3119
406;1.3665563999993537;3106
407;1.3692342999993343;3087
408;1.3712079999995694;3075
409;1.3732495999993262;3064
410;1.375245299999733;3052
411;1.377258499999698;3041
412;1.379556999999295;3028
413;1.382323499999984;3014
414;1.3855032999999821;2998
415;1.388552499999605;2979
416;1.3915559999995821;2961
417;1.3944360999994387;2943
418;1.3976009999996677;2926
419;1.4005938000000242;2907
420;1.4035877999995137;2890
421;1.4067285000000993;2874
422;1.410769999999502;2852
423;1.415024299999459;2828
424;1.4189550000000963;2804
425;1.4230422999999064;2782
426;1.4268348999994487;2758
427;1.4312679999993634;2735
428;1.4348329999993439;2709
429;1.4392651999996815;2687
430;1.4426567000000432;2661
431;1.4466684999997597;2641
432;1.4495541999995112;2621
433;1.4524750000000495;2604
434;1.4554762999996456;2585
435;1.4588604000000487;2566
436;1.4628407000000152;2544
437;1.4669170999995913;2523
438;1.469833699999981;2500
439;1.4734420999993745;2480
440;1.4764199999999619;2460
441;1.4796077999999397;2442
442;1.4825150999995458;2422
443;1.4856300000001283;2404
444;1.4884500999996817;2387
445;1.491635899999892;2371
446;1.4944226999996317;2352
447;1.4976293999998234;2335
448;1.500640499999463;2314
449;1.503635499999291;2298
450;1.506632300000092;2279
451;1.509443399999327;2263
452;1.512630899999749;2246
453;1.515481099999306;2225
454;1.518645799999831;2209
455;1.5214360999998462;2193
456;1.524444499999845;2175
457;1.5275198999997883;2158
458;1.5319905999995171;2135
459;1.5360430000000633;2112
460;1.5398494999999457;2087
461;1.543881099999453;2065
462;1.5468560999997862;2044
463;1.551053199999842;2024
464;1.5538516999995409;2003
465;1.5578730999995969;1983
466;1.561410899999828;1959
467;1.564838499999496;1939
468;1.5688885999998092;1919
469;1.5728805999997348;1896
470;1.5768904999995357;1873
471;1.5798524000001635;1853
472;1.5832780999999159;1833
473;1.5865878999993583;1814
474;1.5895851999994193;1796
475;1.5925889000000097;1778
476;1.5956101000001581;1762
477;1.598272299999735;1746
478;1.6014359999999215;1731
479;1.604389999999512;1712
480;1.6079869999994116;1695
481;1.6115239999999176;1673
482;1.6157702000000427;1653
483;1.6198883999995815;1632
484;1.623877099999845;1609
485;1.6279681999994864;1588
486;1.6308296999995946;1568
487;1.6348746999992727;1551
488;1.638887899999645;1529
489;1.6428769999993165;1508
490;1.6468669999994745;1487
491;1.6508882999996786;1467
492;1.6548843999999008;1446
493;1.6588904000000184;1425
494;1.6628677999997308;1404
495;1.666875799999616;1385
496;1.6708926999999676;1365
497;1.6748760000000402;1346
498;1.6783848999994007;1327
499;1.6818264999992607;1309
500;1.6846464999998716;1294
501;1.687662199999977;1281
502;1.6904335999997784;1267
503;1.6933874999995169;1255
504;1.6964232999998785;1241
505;1.6999671999992643;1226
506;1.7039389000001393;1207
507;1.7079616999999416;1190
508;1.7114390999995521;1173
509;1.7148223999993206;1159
510;1.7188907999998264;1142
511;1.7228761999995186;1126
512;1.7268975999995746;1109
513;1.7298829000001206;1095
514;1.7336779999995997;1080
515;1.737884699999995;1064
516;1.741914999999608;1049
517;1.7458409999999276;1032
518;1.749880800000028;1018
519;1.7538817999993626;1003
520;1.7565776000001279;990
521;1.7595862999996825;979
522;1.762593399999787;968
523;1.765588199999911;958
524;1.768584099999316;947
525;1.7716192999996565;936
526;1.7746309999993173;926
527;1.7776279999998224;916
528;1.7806308999997782;906
529;1.783394699999917;896
530;1.7862758999999642;887
531;1.789449899999454;878
532;1.7924431000001277;869
533;1.7954728999993677;860
534;1.798474599999281;852
535;1.8014180000000124;843
536;1.8044246999997995;834
537;1.8074243999999453;826
538;1.810392999999749;818
539;1.814044599999761;811
540;1.8179878999999346;799
541;1.820981799999572;790
542;1.8246768999997585;781
543;1.8277620999997453;773
544;1.8306499999998778;765
545;1.833369599999969;759
546;1.8366748999997071;752
547;1.8396506999997655;745
548;1.8424416999996538;739
549;1.8456602999995084;733
550;1.8484502999999677;726
551;1.8514931999998225;721
552;1.8545393999993394;715
553;1.8575185999998212;709
554;1.8606589999999414;703
555;1.8635841999994227;698
556;1.86700909999945;692
557;1.8709662999999637;686
558;1.8749454999997397;681
559;1.8785213000001022;675
560;1.8813400999997612;670
561;1.8846743999993123;666
562;1.887690499999735;663
563;1.8907595000000583;659
564;1.8936352999999144;656
565;1.8966012999999293;653
566;1.8995995999994193;650
567;1.9025979999996707;648
568;1.9055938000001333;646
569;1.9086238999998386;644
570;1.9112011999995957;642
571;1.9146111999998539;641
572;1.9176183999998102;640
573;1.9206199000000197;639
574;1.92362090000006;639
575;1.9266143999993801;639
576;1.9296260000000984;639
577;1.932623899999271;640
578;1.935614899999564;640
579;1.9386208999994778;641
580;1.941638399999647;643
581;1.9442430999997669;644
582;1.9476273999998739;646
583;1.9506187999995745;648
584;1.9536238999999114;651
585;1.9566446999997424;653
586;1.9596397999994224;657
587;1.9626396999992721;660
588;1.965642399999524;664
589;1.9686422999993738;668
590;1.971642399999837;672
591;1.97432789999948;676
592;1.9775792000000365;680
593;1.9806416000001263;685
594;1.9836436999994476;689
595;1.9866326999999728;694
596;1.9896223999994618;699
597;1.9923871999999392;705
598;1.9955983999998352;710
599;1.9986794999995254;716
600;2.0016781999993327;722
601;2.004678399999648;728
602;2.0076388999996198;734
603;2.010653199999979;741
604;2.013612899999316;747
605;2.016632999999274;754
606;2.019624499999736;760
607;2.0236300999995365;770
608;2.026614499999596;778
609;2.029635099999723;785
610;2.0326249999998254;792
611;2.035619599999336;800
612;2.0386210999995455;807
613;2.0416325999995024;816
614;2.0442828999994163;823
615;2.047629699999561;831
616;2.0506275999996433;841
617;2.053629699999874;849
618;2.0566008999994665;858
619;2.0596040999998877;867
620;2.0626274999995076;876
621;2.065614099999948;886
622;2.0684920999992755;895
623;2.0713317999998253;904
624;2.0746337000000494;913
625;2.0775370999999723;926
626;2.0805959999997867;934
627;2.0836042999999336;945
628;2.086580600000161;955
629;2.0896036999993157;965
630;2.0926212999993368;976
631;2.0956097999996928;987
632;2.0986008999998376;998
633;2.1016328999994585;1008
634;2.1046046000001297;1019
635;2.107604299999366;1031
636;2.1105938000000606;1043
637;2.1136007999994035;1055
638;2.116348399999879;1067
639;2.119630799999868;1078
640;2.122602999999799;1091
641;2.125601099999585;1104
642;2.1286025999997946;1116
643;2.131352800000059;1129
644;2.1346175999997286;1140
645;2.137599499999851;1155
646;2.1406069999993633;1167
647;2.1436300999994273;1180
648;2.1466104000000996;1194
649;2.1496007999994617;1207
650;2.1525996999998824;1220
651;2.1556037000000288;1234
652;2.1586139000000912;1248
653;2.1613275999998223;1262
654;2.1646304999994754;1275
655;2.1675939999995535;1291
656;2.170573699999295;1305
657;2.173550499999692;1317
658;2.1765418999993926;1331
659;2.1795699999993303;1346
660;2.1825476999993043;1361
661;2.1855134999996153;1376
662;2.1885968999995384;1391
663;2.191609499999686;1407
664;2.1942992999993294;1422
665;2.197632800000065;1436
666;2.2006234000000404;1451
667;2.203640199999427;1469
668;2.206626000000142;1484
669;2.2094575000000987;1499
670;2.2126226999998835;1513
671;2.2155382000000827;1531
672;2.2185319999998683;1547
673;2.2216113999993468;1562
674;2.2246072999996613;1578
675;2.2273976999995284;1593
676;2.2306168999994043;1607
677;2.233610399999634;1627
678;2.2366120999995474;1642
679;2.2396373999999923;1659
680;2.243635099999665;1680
681;2.2466324999995777;1696
682;2.24960209999972;1715
683;2.2525984999992943;1730
684;2.2556273999998666;1747
685;2.258333799999491;1762
686;2.2602606999998898;1776
687;2.262244699999428;1787
688;2.2643615999995745;1799
689;2.266259299999547;1810
690;2.2682375999993383;1820
691;2.27023889999964;1833
692;2.2721559000001434;1843
693;2.2741519000001063;1855
694;2.2761106999996628;1866
695;2.278096999999434;1878
696;2.2801165000000765;1887
697;2.282138099999429;1899
698;2.2841567999994368;1912
699;2.286119599999438;1922
700;2.288166999999703;1935
701;2.2900888999993185;1947
702;2.292154099999607;1957
703;2.2941465999992943;1969
704;2.2961601999995764;1980
705;2.2981110000000626;1991
706;2.300084099999367;2004
707;2.3021506999994017;2015
708;2.3041514999995343;2027
709;2.3061483999999837;2040
710;2.308154499999546;2052
711;2.3101349999997183;2064
712;2.312122499999532;2076
713;2.314090199999555;2087
714;2.3161163999993732;2098
715;2.318156899999849;2110
716;2.32014960000015;2123
717;2.3221482999997534;2135
718;2.3241448999997374;2147
719;2.326153599999998;2159
720;2.328130799999599;2171
721;2.3301567999997133;2184
722;2.3321609999993598;2195
723;2.3341020999996545;2207
724;2.336171099999774;2218
725;2.3381132999993497;2231
726;2.340154999999868;2244
