;time;amplitude
0;0.004216400000586873;2409
1;0.008404899999732152;2408
2;0.011915099999896483;2408
3;0.015887300000031246;2407
4;0.020394200000737328;2407
5;0.025439099999857717;2406
6;0.028960300000107964;2406
7;0.03330690000075265;2405
8;0.03730589999941003;2405
9;0.04217629999948258;2405
10;0.0457628999993176;2404
11;0.050374500000543776;2404
12;0.054388700000345125;2403
13;0.05895380000038131;2402
14;0.0633042999997997;2402
15;0.06726920000073733;2401
16;0.0713556000009703;2400
17;0.0754082000003109;2400
18;0.08013690000007045;2400
19;0.0841935000007652;2399
20;0.08815909999975702;2399
21;0.09204549999958545;2398
22;0.09617660000003525;2397
23;0.10015720000046713;2397
24;0.1052787000007811;2396
25;0.10877840000102879;2396
26;0.11322839999957068;2396
27;0.11716859999978624;2395
28;0.12116050000076939;2395
29;0.12523259999943548;2395
30;0.12887950000003912;2395
31;0.13319620000038412;2395
32;0.13706640000054904;2395
33;0.14113840000027267;2394
34;0.14519450000079814;2394
35;0.14914590000080352;2394
36;0.15324340000006487;2394
37;0.15833820000079868;2394
38;0.16217409999990196;2394
39;0.16617589999987104;2395
40;0.17017409999971278;2394
41;0.17407860000093933;2395
42;0.17829259999962233;2395
43;0.18326220000017202;2396
44;0.1883108000001812;2396
45;0.1917470999997022;2396
46;0.19482699999934994;2396
47;0.1993053999995027;2396
48;0.2032242999994196;2396
49;0.20680200000060722;2396
50;0.21117640000011306;2396
51;0.21512480000092182;2397
52;0.21916460000102234;2396
53;0.22336859999995795;2396
54;0.22722869999961404;2397
55;0.23135109999930137;2397
56;0.23535009999977774;2397
57;0.2387350000008155;2398
58;0.24171539999952074;2398
59;0.24616249999962747;2398
60;0.2500684000006004;2398
61;0.25385819999974046;2398
62;0.25823900000068534;2398
63;0.26218400000107067;2398
64;0.2660990000003949;2399
65;0.2701372999999876;2400
66;0.274134100000083;2400
67;0.27812640000047395;2400
68;0.28214370000023337;2400
69;0.2861642000007123;2401
70;0.2901194000005489;2401
71;0.2937744000009843;2402
72;0.2969692999995459;2402
73;0.3010974000007991;2403
74;0.30506550000063726;2403
75;0.30881740000040736;2403
76;0.31198070000027656;2404
77;0.3160652000005939;2404
78;0.3201379000001907;2404
79;0.3240743999995175;2405
80;0.32805980000011914;2405
81;0.33207279999987804;2406
82;0.3361395000010816;2407
83;0.340126600000076;2407
84;0.3438743999995495;2408
85;0.34704229999988456;2408
86;0.35109840000041004;2409
87;0.35504500000024564;2409
88;0.3588326999997662;2410
89;0.363129299999855;2411
90;0.36710839999977907;2411
91;0.371019600001091;2412
92;0.37511869999980263;2412
93;0.3790392000009888;2413
94;0.38306030000057945;2414
95;0.3857007999995403;2414
96;0.3889971999997215;2415
97;0.39272600000003877;2415
98;0.39722880000044825;2417
99;0.4007578000000649;2417
100;0.4052575000005163;2418
101;0.4087165000000823;2418
102;0.41326830000070913;2419
103;0.4166968999998062;2420
104;0.42007790000025125;2420
105;0.42422699999951874;2421
106;0.4282366000006732;2421
107;0.4319030999995448;2422
108;0.43504740000025777;2423
109;0.4392296999994869;2423
110;0.44276279999940016;2424
111;0.44620750000103726;2424
112;0.45012250000036147;2425
113;0.45416450000084296;2425
114;0.4581687999998394;2426
115;0.4621951999997691;2427
116;0.4667669000009482;2427
117;0.470115000000078;2428
118;0.4741704000007303;2428
119;0.4781960000000254;2429
120;0.48218740000083926;2430
121;0.4861839000004693;2430
122;0.4901955999994243;2431
123;0.4941627000007429;2432
124;0.49817520000033255;2433
125;0.5020156999999017;2433
126;0.5061937000009493;2434
127;0.5102043999995658;2435
128;0.5140604999996867;2436
129;0.5169791000007535;2437
130;0.5210519000011118;2437
131;0.5250852999997733;2437
132;0.5290371000010055;2438
133;0.5330728000008094;2439
134;0.5359829999997601;2439
135;0.5400786000009248;2440
136;0.5435990000005404;2440
137;0.5480607000008604;2441
138;0.5520329000009951;2441
139;0.5560660999999527;2442
140;0.5599065000005794;2443
141;0.5629862999994657;2443
142;0.5670396000004985;2444
143;0.5711057000007713;2445
144;0.5747248999996373;2446
145;0.5791045000005397;2446
146;0.5830729000008432;2447
147;0.5870489000008092;2447
148;0.5911130999993475;2449
149;0.5951248000001215;2450
150;0.5991028000007645;2450
151;0.6031032999999297;2451
152;0.6065868999994564;2451
153;0.611013699999603;2452
154;0.6150238999998692;2453
155;0.6190678000002663;2454
156;0.6230709999999817;2455
157;0.626712299999781;2455
158;0.6299730000009731;2456
159;0.6340675000010378;2456
160;0.6381046999995306;2457
161;0.6416513000003761;2457
162;0.6450896000005741;2457
163;0.6492328000003909;2458
164;0.6531964000005246;2459
165;0.6573143000005075;2459
166;0.6612413000002562;2459
167;0.6651977000001352;2459
168;0.6692633000002388;2459
169;0.6731558999999834;2460
170;0.6772474000008515;2460
171;0.6811832000003051;2460
172;0.6852889000001596;2460
173;0.6888101999993523;2461
174;0.6927737000005436;2461
175;0.6972146999996767;2461
176;0.7011519000006956;2461
177;0.7046604999995907;2462
178;0.7080643000008422;2462
179;0.7122552000000724;2462
180;0.716202900001008;2462
181;0.7200341000007029;2462
182;0.7242146000007779;2462
183;0.7282262000007904;2462
184;0.7321092000001954;2462
185;0.7357797999993636;2463
186;0.7401683999996749;2462
187;0.7441828000009991;2462
188;0.7482201000002533;2462
189;0.7518515000010666;2462
190;0.7562159999997675;2462
191;0.7599219000003359;2462
192;0.764160400000037;2462
193;0.767633499999647;2461
194;0.7707098999999289;2461
195;0.7741337000006752;2461
196;0.7782559000006586;2461
197;0.7819593000003806;2461
198;0.7859377000004315;2461
199;0.7899890000007872;2461
200;0.7938740999998117;2460
201;0.7979427000009309;2460
202;0.8019328999998834;2460
203;0.8060029000007489;2460
204;0.8097995999996783;2459
205;0.8131395000000339;2459
206;0.8171916999999667;2459
207;0.8212137999998959;2459
208;0.8251968999993551;2458
209;0.8291963000010583;2458
210;0.8332061000000976;2458
211;0.8371490999998059;2458
212;0.8413342000003468;2458
213;0.8451573000002099;2457
214;0.8492050000004383;2457
215;0.8531555000008666;2456
216;0.8572015000008832;2455
217;0.8611839999994118;2454
218;0.8651423000010254;2454
219;0.8691976999998587;2454
220;0.8731029999999009;2453
221;0.8771589000007225;2452
222;0.8812056999995548;2451
223;0.885153100000025;2451
224;0.8888076000002911;2451
225;0.8927270000003773;2450
226;0.896103299999595;2449
227;0.9001920000009704;2449
228;0.9041691000002174;2448
229;0.9082588000001124;2448
230;0.9121216000003187;2447
231;0.9161755999994057;2446
232;0.9198988000007375;2446
233;0.9241846999993868;2446
234;0.9281960999996954;2446
235;0.9321966000006796;2445
236;0.9358090999994602;2444
237;0.9402140000001964;2443
238;0.9441915999996127;2443
239;0.94819280000047;2442
240;0.9517735000008543;2442
241;0.954673800000819;2442
242;0.9582102999993367;2442
243;0.9621301000006497;2441
244;0.9661625999997341;2440
245;0.9686973000007129;2440
246;0.9716893999993772;2439
247;0.9749964000002365;2439
248;0.9791893000001437;2438
249;0.9828830999995262;2437
250;0.9871894999996584;2437
251;0.9911946000011085;2437
252;0.9952061000003596;2436
253;0.9987134000002698;2435
254;1.0021280000000843;2434
255;1.0061764000001858;2434
256;1.0101439999998547;2433
257;1.0141382000001613;2433
258;1.0181649000005564;2432
259;1.022181599999385;2432
260;1.0257314999998925;2431
261;1.0289745999998559;2430
262;1.0331435999996756;2430
263;1.0371634000002814;2430
264;1.0411819000000833;2429
265;1.044865400001072;2428
266;1.0491920999993454;2427
267;1.0531680999993114;2426
268;1.0571706000009726;2425
269;1.060700399999405;2424
270;1.0637853000007453;2424
271;1.066866299999674;2423
272;1.0696489000001748;2423
273;1.0726376000002347;2422
274;1.0755578000007517;2422
275;1.0785178000005544;2421
276;1.081501799999387;2421
277;1.0844737000006717;2420
278;1.0875204999993002;2420
279;1.0904798000010487;2419
280;1.0935343000001012;2418
281;1.0955025000002934;2418
282;1.0986852000005456;2417
283;1.1016787999997177;2416
284;1.1046838000002026;2415
285;1.1075099000008777;2415
286;1.1097012000009272;2414
287;1.1127030000006926;2414
288;1.115703699999358;2413
289;1.1187016000003496;2412
290;1.1217056999994384;2412
291;1.1244657000006555;2411
292;1.127657299999555;2411
293;1.1307245999996667;2410
294;1.1337428000006184;2410
295;1.136714899999788;2409
296;1.1394128000010824;2409
297;1.1427020000010089;2408
298;1.1457133000003523;2408
299;1.1486912000000302;2407
300;1.1516938000004302;2406
301;1.1547468999997363;2406
302;1.1576808000008896;2405
303;1.1607280999996874;2405
304;1.1637241999997059;2404
305;1.1667479000007006;2404
306;1.1697253000002092;2403
307;1.1727274999993824;2403
308;1.1757269000008819;2402
309;1.1787365000000136;2402
310;1.1818060000005062;2401
311;1.1848131000006106;2401
312;1.1878123999995296;2401
313;1.1908194000006915;2400
314;1.1937758999993093;2400
315;1.196769399999539;2400
316;1.1997520000004442;2399
317;1.2027648000002955;2399
318;1.2054846000010002;2399
319;1.2084441000006336;2399
320;1.2117680000010296;2398
321;1.214765200000329;2398
322;1.2177764999996725;2397
323;1.2207763999995223;2397
324;1.223763100000724;2397
325;1.2267707999999402;2397
326;1.2297503000008874;2396
327;1.232774399999471;2396
328;1.2354161000002932;2396
329;1.2375262999994447;2396
330;1.2407765000007203;2396
331;1.2437694000000192;2396
332;1.2467697000010958;2396
333;1.249782700000651;2396
334;1.2537785999993503;2396
335;1.2567724000000453;2396
336;1.2597705000007409;2395
337;1.2627678000008018;2395
338;1.2657749000009062;2395
339;1.2686678999998549;2395
340;1.2717735999995057;2395
341;1.274648900000102;2394
342;1.2777633999994578;2393
343;1.2807785000004515;2393
344;1.2834667999995872;2393
345;1.2867700999995577;2393
346;1.28976750000038;2393
347;1.2927718999999342;2393
348;1.2957767999996577;2393
349;1.2984759000009944;2393
350;1.3017006000009133;2393
351;1.3047442999995837;2392
352;1.3076775999998063;2392
353;1.3107245000010153;2392
354;1.3138008000005357;2392
355;1.3169851000002382;2392
356;1.3209915000006731;2392
357;1.3247819999996864;2392
358;1.3277889000000869;2393
359;1.3307987000007415;2392
360;1.3338127000006352;2393
361;1.3367809999999736;2393
362;1.33979779999936;2393
363;1.3430019000006723;2393
364;1.3470321000004333;2393
365;1.351050999999643;2394
366;1.3550543000001198;2394
367;1.3585813999998209;2395
368;1.3619878999998036;2395
369;1.366062700000839;2395
370;1.370055700001103;2395
371;1.374054800000522;2396
372;1.3770110999994358;2396
373;1.381053900000552;2396
374;1.3850359999996726;2397
375;1.3890449999998964;2397
376;1.3929970000008325;2397
377;1.3970521000010194;2397
378;1.4010758999993413;2397
379;1.405051600000661;2398
380;1.4080493000001297;2398
381;1.4120634000009886;2398
382;1.416051600001083;2399
383;1.4200521000002482;2399
384;1.4235148999996454;2399
385;1.4264483000006294;2399
386;1.4284839000010834;2400
387;1.431518800000049;2400
388;1.4334890000009182;2400
389;1.4355377000010776;2400
390;1.438122999999905;2400
391;1.4403168000008009;2400
392;1.4424856000005093;2401
393;1.4446664000006422;2401
394;1.4476635000009992;2401
395;1.4506467999999586;2402
396;1.4534911999999167;2402
397;1.4566216000002896;2402
398;1.45965360000082;2403
399;1.4626499000005424;2403
400;1.4656608999994205;2404
401;1.4686739999997371;2404
402;1.4717039999995905;2405
403;1.4746181999998953;2405
404;1.4777075000001787;2406
405;1.4807065000004513;2406
406;1.483696900000723;2407
407;1.486707899999601;2407
408;1.4896707000007154;2408
409;1.4927048000008654;2408
410;1.4956746000007115;2408
411;1.4986695000006875;2409
412;1.5017062000006263;2409
413;1.5046612000005553;2410
414;1.507661100000405;2411
415;1.5106826000010187;2411
416;1.5136784999995143;2412
417;1.5164578999992955;2412
418;1.5196489999998448;2413
419;1.5226621000001614;2413
420;1.5256657999998424;2414
421;1.528669200000877;2414
422;1.5313996000004408;2415
423;1.5346728000004077;2415
424;1.5376424999994924;2416
425;1.5406887000008282;2417
426;1.5436903999998322;2417
427;1.5467062999996415;2417
428;1.5496992000007594;2418
429;1.5526915999998891;2418
430;1.5556725999995251;2418
431;1.558461200000238;2419
432;1.561703999999736;2419
433;1.5645404999995662;2419
434;1.5674966999995377;2420
435;1.5695250000007945;2420
436;1.572900999999547;2421
437;1.575488200000109;2421
438;1.5787086000000272;2421
439;1.5827652999996644;2422
440;1.5858416999999463;2423
441;1.5887904999999591;2424
442;1.5914910999999847;2424
443;1.5944173999996565;2424
444;1.5975431999995635;2425
445;1.6005311999997502;2426
446;1.603559099999984;2426
447;1.6065328000004229;2427
448;1.609706900000674;2428
449;1.6127006000006077;2427
450;1.6158118000003014;2427
451;1.6188204000009137;2428
452;1.6218005000009725;2428
453;1.624391999999716;2429
454;1.6278020999998262;2430
455;1.6307914999997593;2430
456;1.6338004999997793;2431
457;1.6367977999998402;2432
458;1.639762900000278;2433
459;1.642791700000089;2433
460;1.6457995000000665;2434
461;1.6488024000009318;2434
462;1.6517915000003995;2435
463;1.6548041999994894;2436
464;1.657465599999341;2436
465;1.6607502000006207;2436
466;1.663845200000651;2436
467;1.6668442000009236;2436
468;1.6698477999998431;2437
469;1.6726262000011047;2438
470;1.6758102000003419;2438
471;1.6788116999996419;2439
472;1.6818070000008447;2439
473;1.684738500000094;2440
474;1.6877820000008796;2441
475;1.6907792000001791;2441
476;1.6938119000005827;2442
477;1.6968169000010676;2442
478;1.6998091999994358;2443
479;1.7028024999999616;2443
480;1.7058159000007436;2444
481;1.7085776000003534;2444
482;1.7118171000001894;2445
483;1.7147987999996985;2445
484;1.7178172000003542;2446
485;1.7208198000007542;2446
486;1.723806500000137;2447
487;1.726807799999733;2447
488;1.7298281000003044;2448
489;1.732799299999897;2448
490;1.73554409999997;2449
491;1.7387930000004417;2450
492;1.7415194999994128;2450
493;1.7447843000009016;2450
494;1.747787899999821;2451
495;1.7507296000003407;2450
496;1.7537850999997318;2451
497;1.7567522000008466;2451
498;1.7597887000010815;2451
499;1.7627926999994088;2452
500;1.7657837000006111;2452
501;1.7687913000008848;2453
502;1.7717904000001;2453
503;1.7745312999995804;2453
504;1.7778027999993355;2453
505;1.7807983000002423;2453
506;1.7838040000006004;2453
507;1.7867951999996876;2454
508;1.7897917999998754;2454
509;1.7928176000004896;2455
510;1.7957925999999134;2455
511;1.798492100000658;2456
512;1.8018152000004193;2456
513;1.804789100000562;2456
514;1.8078108999998221;2456
515;1.810790999999881;2456
516;1.8136224999998376;2456
517;1.8167912999997498;2457
518;1.8197887000005721;2457
519;1.8227702999993198;2457
520;1.825796499999342;2458
521;1.8288200999995752;2458
522;1.8315079999993031;2458
523;1.8335038000004715;2458
524;1.8354899999994814;2458
525;1.8374588000006042;2459
526;1.8396642000006977;2459
527;1.8425862999993114;2459
528;1.845344400000613;2459
529;1.8487922000003891;2460
530;1.8517238000004;2460
531;1.854794500000935;2460
532;1.8578345000005356;2460
533;1.8606899999995221;2460
534;1.8636683999993693;2460
535;1.8666615000001912;2460
536;1.869617800000924;2460
537;1.8726335000010295;2460
538;1.8757888000000094;2460
539;1.8786701999997604;2461
540;1.8815666000009514;2461
541;1.8849086000009265;2461
542;1.8891373999995267;2461
543;1.8930058999994799;2461
544;1.897627599999396;2461
545;1.902535600000192;2461
546;1.908140600000479;2461
547;1.9119828000002599;2460
548;1.9166408000000956;2460
549;1.92113210000025;2460
550;1.9247221000005084;2460
551;1.9294239999999263;2460
552;1.9333848000005673;2460
553;1.9373943000009604;2459
554;1.9413705000006303;2459
555;1.9453018000003794;2458
556;1.9493197000010696;2458
557;1.9532670999997208;2457
558;1.95685020000019;2457
559;1.960827099999733;2456
560;1.963899100001072;2456
561;1.9669121999995696;2456
562;1.9709643000005599;2455
563;1.9750518000000739;2455
564;1.9793530000006285;2455
565;1.9833214999998745;2454
566;1.9867439000008744;2454
567;1.989940800000113;2454
568;1.992878799999744;2453
569;1.9972957000009046;2452
570;2.0013292000003275;2451
571;2.0052589000006265;2451
572;2.0086969999993016;2451
573;2.0132995000003575;2451
574;2.0174839999999676;2451
575;2.0212697999995726;2450
576;2.024914699999499;2450
577;2.0278808000002755;2450
578;2.030801799999608;2449
579;2.0336227000007057;2449
580;2.036923800000295;2449
581;2.0408987999999226;2448
582;2.0439124000004085;2448
583;2.046902300000511;2448
584;2.0496966000009706;2447
585;2.052759399999559;2447
586;2.055931099999725;2446
587;2.0599111999999877;2446
588;2.0629014000005554;2445
589;2.065722999999707;2445
590;2.068703799999639;2445
591;2.071760599999834;2445
592;2.0746037999997498;2444
593;2.0778157000004285;2443
594;2.080547100000331;2443
595;2.083816000000297;2443
596;2.086827999999514;2443
597;2.0898238999998284;2442
598;2.092817599999762;2442
599;2.0958241000007547;2442
600;2.0984738999995898;2441
601;2.101470400000835;2441
602;2.1044722000006004;2440
603;2.1080158999993728;2440
604;2.11171160000049;2439
605;2.1149973000010505;2438
606;2.118031800000608;2438
607;2.121994799999811;2437
608;2.1266073000006145;2436
609;2.1300215999999637;2436
610;2.1340744999997696;2435
611;2.1380848000007973;2435
612;2.141598600001089;2434
613;2.145050099999935;2433
614;2.149077500000203;2433
615;2.1530753999995795;2433
616;2.156991100000596;2432
617;2.16004090000024;2431
618;2.1640877000008913;2430
619;2.1680797999997594;2430
620;2.1720261000009486;2429
621;2.174655900000289;2428
622;2.1779982000007294;2427
623;2.182075000000623;2427
624;2.186088500000551;2426
625;2.1889862999996694;2426
626;2.193048799999815;2425
627;2.197084999999788;2425
628;2.201069799999459;2424
629;2.205000800000562;2424
630;2.2085919000001013;2423
631;2.2120463000010204;2422
632;2.216080800000782;2422
633;2.220062300000791;2421
634;2.2241118000001734;2420
635;2.2270358000005217;2419
636;2.2310859999997774;2419
637;2.234558800000741;2418
638;2.2380207999995037;2418
639;2.2416054000004806;2417
640;2.2450504999997065;2417
641;2.2490794000004826;2417
642;2.252571299999545;2416
643;2.256040500000381;2416
644;2.260068900000988;2415
645;2.264085900000282;2414
646;2.268076000000292;2413
647;2.2720783000004303;2413
648;2.276026900000943;2412
649;2.2800753000010445;2411
650;2.284048100000291;2410
651;2.288086500000645;2409
652;2.29159350000009;2409
653;2.295047900001009;2408
654;2.2990687000001344;2407
655;2.303101200001038;2406
656;2.307080300000962;2405
657;2.3100656000005984;2404
658;2.3136004000007233;2404
659;2.317037099999652;2404
660;2.3210823999997956;2403
661;2.324640200000431;2403
662;2.328038400000878;2402
663;2.3320753000007244;2402
664;2.336075499999424;2401
665;2.340076800001043;2401
666;2.3430084999999963;2401
667;2.346584000000803;2401
668;2.350011099999392;2401
669;2.352986600000804;2400
670;2.3560152999998536;2400
671;2.3601283999996667;2400
672;2.3625824000009743;2400
673;2.366041100000075;2400
674;2.370078399999329;2400
675;2.3740785000009055;2399
676;2.3767798999997467;2399
677;2.380730599999879;2399
678;2.3836821999993845;2399
679;2.3868770000008226;2399
680;2.3898403000002872;2398
681;2.392587000000276;2398
682;2.395632800000385;2398
683;2.3986855000002834;2398
684;2.4018840999997337;2397
685;2.4045618000000104;2397
686;2.4075754999994388;2397
687;2.4108039000002464;2397
688;2.4137697999995;2397
689;2.41676759999973;2396
690;2.4199470000003203;2397
691;2.424133800001073;2397
692;2.4282851000007213;2396
693;2.432415100000071;2396
694;2.437599799999589;2396
695;2.442120800000339;2396
696;2.4461110000011104;2396
697;2.450657900000806;2396
698;2.455647000000681;2396
699;2.459907200000089;2396
700;2.4628905999998096;2396
701;2.466283800000383;2396
702;2.4702352000003884;2396
703;2.4742268000009062;2397
704;2.4782673999998224;2396
705;2.482208100000207;2396
706;2.4862451999997575;2396
707;2.4900426999993215;2396
708;2.493114400000195;2396
709;2.497182499999326;2396
710;2.5011814999998023;2396
711;2.5047088000010262;2396
712;2.5086967999995977;2396
713;2.513172900000427;2396
714;2.5171430000009423;2396
715;2.5211369000007835;2397
716;2.5247631000002;2397
717;2.5291677999994135;2397
718;2.5331485999995493;2397
719;2.5371410000007018;2397
