;time;amplitude
0;0.004210400000374648;3079
1;0.009825200000705081;3104
2;0.014798800000789925;3136
3;0.01966290000018489;3166
4;0.024218400000791007;3192
5;0.02852450000045792;3217
6;0.03350290000071254;3247
7;0.0382528000000093;3273
8;0.04259170000023005;3295
9;0.04756380000071658;3323
10;0.0529872000006435;3355
11;0.057045100000323146;3375
12;0.06143350000002101;3398
13;0.06617290000031062;3424
14;0.07027070000003732;3446
15;0.07397860000037326;3469
16;0.07852240000011079;3488
17;0.08246330000019952;3512
18;0.08643130000018573;3533
19;0.09145020000050863;3555
20;0.0965118000003713;3580
21;0.10151450000012119;3606
22;0.10613460000058694;3630
23;0.11044459999993705;3650
24;0.11544649999996182;3674
25;0.12009290000059991;3698
26;0.12388330000067072;3719
27;0.1284378000000288;3735
28;0.13350780000018858;3758
29;0.1379200999999739;3782
30;0.1414027000000715;3798
31;0.1449322000007669;3814
32;0.1489476000006107;3831
33;0.15303440000025148;3846
34;0.1567841000005501;3865
35;0.1602349000004324;3879
36;0.16427240000029997;3894
37;0.1682931000004828;3913
38;0.1723180000008142;3929
39;0.17609260000062932;3944
40;0.18009860000074696;3961
41;0.1841842000003453;3975
42;0.18817420000050333;3990
43;0.19184640000003128;4006
44;0.19501970000055735;4019
45;0.19939960000010615;4030
46;0.20319650000055844;4047
47;0.2067784999999276;4059
48;0.21033660000011878;4071
49;0.2143584000004921;4083
50;0.2179191000004721;4099
51;0.2219042000006084;4109
52;0.22507300000052055;4121
53;0.2292196000007607;4133
54;0.23328550000042014;4145
55;0.23711490000005142;4157
56;0.24131330000000162;4167
57;0.24533410000003641;4179
58;0.2493099000002985;4190
59;0.2527886000007129;4201
60;0.2568637000003946;4210
61;0.2599043000000165;4220
62;0.2632180000000517;4228
63;0.26718830000027083;4237
64;0.2708156000007875;4246
65;0.27387610000005225;4253
66;0.27836500000012165;4260
67;0.2821702000001096;4270
68;0.2863391999999294;4277
69;0.28975590000027296;4284
70;0.29317900000023656;4289
71;0.2973598000007769;4294
72;0.3007954000004247;4299
73;0.3043018000007578;4302
74;0.30833610000081535;4304
75;0.3123300000006566;4307
76;0.3158679000007396;4308
77;0.3189964000002874;4309
78;0.32290830000056303;4309
79;0.32730850000007194;4307
80;0.33144540000012057;4305
81;0.335232299999916;4302
82;0.3392954999999347;4299
83;0.34324259999993956;4294
84;0.34656810000069527;4288
85;0.35133850000056555;4282
86;0.3552718000000823;4275
87;0.359351200000674;4268
88;0.36289750000014465;4259
89;0.3673521000000619;4252
90;0.3710406000000148;4242
91;0.3739313000005495;4235
92;0.37706100000013976;4228
93;0.38085120000050665;4219
94;0.38497300000017276;4210
95;0.38936499999999796;4199
96;0.39402850000078615;4186
97;0.3983077000002595;4177
98;0.4022100000001956;4164
99;0.40606019999995624;4154
100;0.4098753000007491;4142
101;0.4127594000001409;4131
102;0.4157290000002831;4123
103;0.41909990000021935;4113
104;0.4226462000005995;4102
105;0.4255689000001439;4091
106;0.4274938000007751;4084
107;0.429459300000417;4077
108;0.4317921000001661;4071
109;0.4347486000006029;4062
110;0.4378083000001425;4052
111;0.4406478999999308;4042
112;0.44378150000011374;4030
113;0.44681190000028437;4020
114;0.44983090000005177;4009
115;0.45282380000026023;3998
116;0.45557989999997517;3987
117;0.4578231000004962;3979
118;0.460817400000451;3969
119;0.4638167000002795;3957
120;0.46682400000008784;3945
121;0.469830500000171;3933
122;0.47247800000059215;3921
123;0.47582990000046266;3911
124;0.4788226000000577;3897
125;0.48181770000064716;3885
126;0.4848342000004777;3872
127;0.4877866000006179;3860
128;0.4908272000002398;3847
129;0.4938209000001734;3833
130;0.49680890000036015;3821
131;0.49977400000079797;3808
132;0.5027982999999949;3795
133;0.5055446000005759;3782
134;0.5088057000002664;3770
135;0.5118056000001161;3755
136;0.5147973000002821;3741
137;0.5177920000005543;3726
138;0.5205288000006476;3713
139;0.5238069000006362;3701
140;0.5267366000007314;3686
141;0.5298175000007177;3672
142;0.5327992000002268;3657
143;0.5358014000003095;3642
144;0.5388055000003078;3628
145;0.5418003000004319;3613
146;0.5447841000004701;3598
147;0.547767300000487;3582
148;0.5505063000000519;3568
149;0.5526017000001957;3558
150;0.5555121000006693;3545
151;0.5587767000006352;3531
152;0.5617385000005015;3515
153;0.5647258000008151;3500
154;0.5677851000000373;3484
155;0.5707431000000724;3468
156;0.5738233000001856;3453
157;0.5767749000006006;3434
158;0.5797736000004079;3419
159;0.5827754000001732;3403
160;0.5857857999999396;3387
161;0.5888359000000492;3372
162;0.5917765000003783;3356
163;0.5947691000001214;3338
164;0.5977762000002258;3322
165;0.600794599999972;3306
166;0.6036185000002661;3289
167;0.6067832000007911;3273
168;0.6097802000003867;3254
169;0.6127746000001935;3236
170;0.6157857000007425;3219
171;0.6187794000006761;3201
172;0.6216320000003179;3185
173;0.6245988999999099;3170
174;0.6278114000006099;3151
175;0.630812500000502;3132
176;0.6338103000007322;3114
177;0.6368105999999898;3098
178;0.6397585000004256;3079
179;0.6428322000001572;3062
180;0.6457534000001033;3044
181;0.6487818000005063;3029
182;0.6517829000003985;3010
183;0.6547764000006282;2994
184;0.6577803000000131;2978
185;0.6607871000005616;2958
186;0.6637783000005584;2939
187;0.6665163000006942;2922
188;0.6685842000006232;2910
189;0.6717490999999427;2894
190;0.6747903000004953;2877
191;0.6777853000003233;2858
192;0.6807480000006763;2840
193;0.6838017000000036;2826
194;0.686788300000444;2808
195;0.6894768000001932;2788
196;0.6926293000005899;2774
197;0.6956158000002688;2755
198;0.6986439000002065;2737
199;0.7016523000002053;2718
200;0.7046520000003511;2701
201;0.7076383000003261;2684
202;0.7107767000006788;2663
203;0.7137734000007185;2643
204;0.7167677000006734;2624
205;0.7197610000002896;2607
206;0.7224447000007785;2589
207;0.7257656000001589;2571
208;0.728763600000093;2552
209;0.7317782000000079;2534
210;0.7347641000005751;2515
211;0.7377598000002763;2497
212;0.7407812999999805;2480
213;0.743760199999997;2461
214;0.7467638000007355;2442
215;0.749777100000756;2424
216;0.7527423000001363;2405
217;0.7555013999999574;2386
218;0.758770899999945;2372
219;0.7618239000003086;2351
220;0.7648214000000735;2332
221;0.7677920000005543;2314
222;0.7706748000000516;2296
223;0.7738071000003401;2280
224;0.7767066000005798;2260
225;0.7798123000002306;2242
226;0.7827996000005442;2224
227;0.7857524000000922;2206
228;0.7888089000007312;2187
229;0.7917949000002409;2168
230;0.7947921000004499;2150
231;0.7978108000006614;2134
232;0.8008313000000271;2114
233;0.8038220000007641;2100
234;0.8068081000001257;2080
235;0.8098219000003155;2061
236;0.8128313000006528;2042
237;0.8158056000002034;2026
238;0.8185509000004458;2008
239;0.8205584000006638;1994
240;0.823554100000365;1981
241;0.8254993000000468;1964
242;0.8274807000007058;1953
243;0.8297738999999638;1941
244;0.8329011000005266;1926
245;0.8367821000001641;1905
246;0.8396127000005436;1883
247;0.8427273000006608;1868
248;0.8458194000004369;1851
249;0.8486380000003919;1831
250;0.8517901000004713;1816
251;0.8548654000005627;1799
252;0.8578764000003503;1782
253;0.8609057000003304;1764
254;0.863788000000568;1746
255;0.8668741000001319;1732
256;0.8698549000000639;1714
257;0.8725045000001046;1695
258;0.875818700000309;1682
259;0.8787449999999808;1663
260;0.8817238999999972;1650
261;0.884831800000029;1631
262;0.887814900000194;1614
263;0.8908442000001742;1599
264;0.8938204000005499;1579
265;0.8968241000002308;1564
266;0.899818600000799;1548
267;0.9028335000002699;1531
268;0.9054848000005222;1514
269;0.9088334000007308;1502
270;0.9117177000007359;1484
271;0.9148375000004307;1469
272;0.9178391000004922;1451
273;0.9208311000002141;1435
274;0.9238093000003573;1420
275;0.9266910000005737;1405
276;0.9298031000007541;1390
277;0.9328377000001637;1373
278;0.9358412999999928;1358
279;0.9388312999999471;1343
280;0.9418207000007897;1328
281;0.9455218000002787;1309
282;0.9488225000004604;1295
283;0.9518136000006052;1279
284;0.9548183000006247;1264
285;0.9578200000005381;1251
286;0.9608146000000488;1235
287;0.9638198000002376;1222
288;0.9668283999999403;1208
289;0.9698231000002124;1194
290;0.9725174000004699;1181
291;0.9758463000007396;1168
292;0.9788320000006934;1153
293;0.9818195000007108;1140
294;0.9847746000004918;1127
295;0.987829700000475;1114
296;0.9905625000001237;1102
297;0.9938075000000026;1089
298;0.9968269000000873;1074
299;0.9998013000003994;1061
300;1.0028187000007165;1050
301;1.005446099999972;1038
302;1.0076527999999598;1028
303;1.0108194000004005;1018
304;1.0138138000002073;1006
305;1.016827700000249;994
306;1.0198201000002882;983
307;1.0225033000006079;971
308;1.0258317000007082;961
309;1.028800300000512;949
310;1.031821100000343;938
311;1.0348297000000457;928
312;1.0374736000003395;917
313;1.0408436000006986;907
314;1.043794700000035;896
315;1.0467962000002444;886
316;1.0497908000006646;876
317;1.0528156000000308;866
318;1.0566893000004711;853
319;1.0598196000000826;844
320;1.0628331000007165;834
321;1.0658196000003954;824
322;1.0688223000006474;815
323;1.0715036000001419;807
324;1.0736736000008023;800
325;1.0768244999999297;793
326;1.0798185000003286;785
327;1.08281690000058;777
328;1.0858363000006648;769
329;1.0886994000002232;761
330;1.0918223000007856;754
331;1.0948232999999163;746
332;1.0978193999999348;739
333;1.1008237000005465;732
334;1.1035709000007046;725
335;1.1068313000005219;718
336;1.1098248000007516;712
337;1.1128341000003275;705
338;1.115833400000156;699
339;1.1187685000004421;693
340;1.1215525000006892;688
341;1.1238196000003882;683
342;1.1268241000007038;678
343;1.1298150000002352;674
344;1.1328243000007205;669
345;1.1358254000006127;664
346;1.1387555000001157;660
347;1.1418247999999949;656
348;1.1448416000002908;652
349;1.1478233000007094;648
350;1.150829000000158;645
351;1.1538213000003452;642
352;1.156829800000196;639
353;1.159821700000066;637
354;1.1628288000001703;635
355;1.165828600000168;634
356;1.1687387000001763;633
357;1.1717294000000038;633
358;1.1748489000001427;633
359;1.1778198000001794;633
360;1.18082990000039;634
361;1.1838237000001754;635
362;1.1868200000008073;637
363;1.1898267000005944;639
364;1.192811700000675;641
365;1.1958228000003146;643
366;1.1985795000000508;646
367;1.20183040000029;649
368;1.2048248000000967;654
369;1.2075666999999157;657
370;1.2105970000002344;661
371;1.2138367000006838;666
372;1.2167981000002328;671
373;1.2196581000007427;676
374;1.2225760999999693;682
375;1.2255117000004248;687
376;1.2284896999999546;692
377;1.231712200000402;698
378;1.2346629000003304;705
379;1.237687800000458;712
380;1.2407044000001406;718
381;1.2438462000000072;725
382;1.2468464000003223;732
383;1.2498456000002989;739
384;1.252868500000659;746
385;1.2556532000007792;753
386;1.2587028000007194;760
387;1.26165200000014;768
388;1.264722800000527;776
389;1.2677040000007764;784
390;1.2706826000003275;792
391;1.2748461000001043;804
392;1.2780111000001853;813
393;1.2820792000002257;823
394;1.285833700000694;835
395;1.288905899999918;846
396;1.2918905000005907;855
397;1.294901199999913;865
398;1.2979116000005888;876
399;1.3007470000002286;885
400;1.3035721000005651;895
401;1.3067181000005803;904
402;1.3096934000004694;915
403;1.3127038000002358;924
404;1.3157056000000011;935
405;1.3187416000000667;946
406;1.3217291000000841;957
407;1.3247420000006969;968
408;1.3277262999999948;980
409;1.3307401000001846;992
410;1.3337275000003501;1003
411;1.336753999999928;1013
412;1.3397074000004068;1025
413;1.3427414000007047;1037
414;1.345731400000659;1049
415;1.3487309000001915;1061
416;1.3514859000006254;1073
417;1.354481900000792;1085
418;1.3565029000001232;1096
419;1.3585492000001977;1105
420;1.3617475000000923;1114
421;1.364746500000365;1130
422;1.3677255000002333;1142
423;1.3707205000000613;1155
424;1.3737353000005896;1168
425;1.376726100000269;1181
426;1.379723300000478;1195
427;1.3825180000003456;1209
428;1.3857346000004327;1223
429;1.3886908000004041;1237
430;1.3918368000004193;1251
431;1.3948380000001634;1266
432;1.3976818999999523;1280
433;1.4008392000005188;1294
434;1.4038302000008116;1311
435;1.4068391000000702;1325
436;1.4098377000000255;1340
437;1.4128384000005099;1355
438;1.4155371000006198;1369
439;1.4188380000005054;1384
440;1.421723400000701;1401
441;1.4247513000000254;1417
442;1.4277412999999797;1431
443;1.430506300000161;1447
444;1.4324702000003526;1460
445;1.4358113000007506;1473
446;1.4386438000001363;1490
447;1.4417778000006365;1505
448;1.444683000000623;1523
449;1.4478042999999161;1537
450;1.4508355000007214;1555
451;1.4538338000002113;1570
452;1.4568367000001672;1587
453;1.4598316999999952;1603
454;1.4628278000000137;1618
455;1.465838099999928;1636
456;1.4688386000007085;1652
457;1.4718382999999449;1669
458;1.4748380000000907;1686
459;1.4778675000006842;1703
460;1.4808403000006365;1721
461;1.483828600000379;1738
462;1.486831400000483;1755
463;1.4898171000004368;1771
464;1.4925221000003148;1788
465;1.4958623000002262;1804
466;1.4988313000003473;1823
467;1.5018331999999646;1840
468;1.504840399999921;1857
469;1.5078280000006998;1874
470;1.510844299999917;1893
471;1.5138180000003558;1911
472;1.516816800000015;1929
473;1.5198238000002675;1945
474;1.522577700000511;1963
475;1.5258278000001155;1977
476;1.5288274000004094;1998
477;1.5318216000005123;2015
478;1.5348276000004262;2033
479;1.5378261000005296;2051
480;1.5407060000006823;2066
481;1.5438448000004428;2084
482;1.5468407000007574;2105
483;1.5498163000002023;2122
484;1.5528345000002446;2137
485;1.5554310000006808;2156
486;1.5588059000001522;2173
487;1.5617770000008022;2193
488;1.5647784000002503;2212
489;1.5677537999999913;2229
490;1.5706637000002956;2247
491;1.5738117999999304;2265
492;1.5767721000001984;2283
493;1.579791699999987;2301
494;1.5829217000000426;2320
495;1.5870254999999815;2342
496;1.5910993000006783;2368
497;1.5951583000005485;2392
498;1.5991534000004322;2418
499;1.603261900000689;2442
500;1.606928200000766;2469
501;1.611678700000084;2491
502;1.616393700000117;2525
503;1.6215076000007684;2552
504;1.6249316000003091;2582
505;1.627954800000225;2600
506;1.6324400000003152;2621
507;1.635875400000259;2646
508;1.6388505000004443;2667
509;1.6419508000008136;2685
510;1.6459870000007868;2709
511;1.6504910000003292;2729
512;1.6554572000004555;2762
513;1.659314400000767;2788
514;1.6634760000006281;2808
515;1.6671198000003642;2834
516;1.671493300000293;2856
517;1.6749644999999873;2884
518;1.6794727000005878;2904
519;1.6834195000001273;2929
520;1.6873169000000416;2953
521;1.6912160000001677;2975
522;1.6954286000000138;2999
523;1.699449600000662;3024
524;1.7034176000006482;3047
525;1.70689880000009;3071
526;1.709930600000007;3091
527;1.7129139000007854;3109
528;1.7171186000005036;3126
529;1.7211282000007486;3151
530;1.7254706000003353;3174
531;1.7292741999999635;3199
532;1.7329428000002736;3222
533;1.7359675000006973;3243
534;1.739835100000164;3261
535;1.7443337000004249;3283
536;1.7478367000003345;3308
537;1.7523297000007005;3329
538;1.7557989000006273;3351
539;1.7590067000001;3370
540;1.762951200000316;3388
541;1.7659438000000591;3408
542;1.7689679000004617;3424
543;1.7721045000007507;3439
544;1.7748061000002053;3456
545;1.7779213000003438;3472
546;1.7809330000000045;3487
547;1.7838865000003352;3502
548;1.7868574000003719;3517
549;1.7895855000006122;3533
550;1.792600400000083;3546
551;1.79559750000044;3561
552;1.7989585000004809;3579
553;1.801947900000414;3595
554;1.804624700000204;3609
555;1.80781560000014;3620
556;1.810836399999971;3637
557;1.8138288000000102;3651
558;1.8168353000000934;3666
559;1.8198301000002175;3681
560;1.8226156999999148;3696
561;1.8258359000001292;3708
562;1.8288339999999152;3725
563;1.831813200000397;3739
564;1.8348095999999714;3753
565;1.8378271999999924;3766
566;1.8407685000001948;3779
567;1.8438269000007494;3794
568;1.846820800000387;3808
569;1.8498369000008097;3821
570;1.8528361000007862;3834
571;1.8555278000003455;3848
572;1.8588242000005266;3860
573;1.8618334000002505;3873
574;1.864826200000607;3887
575;1.8676940000004834;3899
576;1.8708319000006668;3911
577;1.8738320000002204;3923
578;1.8768286000004082;3936
579;1.8798271000005116;3948
580;1.8826459000001705;3960
581;1.8858282000001054;3972
582;1.8885440000003655;3983
583;1.8918062000002465;3994
584;1.89482500000031;4007
585;1.8978360999999495;4018
586;1.90084300000035;4029
587;1.9037989000007656;4040
588;1.9068483999999444;4051
589;1.9097387000001618;4062
590;1.9128334000006362;4072
591;1.9158285000003161;4082
592;1.918832199999997;4093
593;1.921843600000102;4103
594;1.924837500000649;4113
595;1.927841000000626;4122
596;1.9308290000008128;4132
597;1.9338341000002401;4142
598;1.9368431000002602;4151
599;1.9398572000000058;4160
600;1.9428471000001082;4169
601;1.9455598000004102;4178
602;1.9488348000004407;4186
603;1.9518322000003536;4195
604;1.954819800000223;4202
605;1.9576983000006294;4211
606;1.9610557000005429;4218
607;1.963837300000705;4225
608;1.9668393000001743;4233
609;1.9698313000008056;4241
610;1.9726784000004045;4247
611;1.9758363000000827;4253
612;1.9788410000001022;4260
613;1.9818362000005436;4266
614;1.9848508000004585;4272
615;1.9878316000003906;4278
616;1.990842100000009;4282
617;1.9938410000004296;4287
618;1.996834200000194;4292
619;1.999837800000023;4296
620;2.002834800000528;4299
621;2.0055914000004122;4302
622;2.0085474000006798;4304
623;2.0118453000004592;4306
624;2.014839600000414;4307
625;2.017834400000538;4308
626;2.0208386000003884;4308
627;2.0237998000002335;4308
628;2.026832900000045;4308
629;2.0298367000004873;4307
630;2.032837400000062;4306
631;2.035840200000166;4304
632;2.038531000000148;4301
633;2.041717200000676;4298
634;2.0448372999999265;4294
635;2.047847499999989;4289
636;2.0508376000007047;4284
637;2.0538399000006393;4279
638;2.056720000000496;4274
639;2.05969610000011;4268
640;2.062712100000681;4263
641;2.0657010000004448;4257
642;2.0687035000000833;4250
643;2.0715626999999586;4244
644;2.075232600000163;4237
645;2.079243000000133;4227
646;2.083245600000737;4217
647;2.0872386999999435;4207
648;2.091138000000683;4196
649;2.09516050000002;4186
650;2.0991576000005807;4175
651;2.103228200000558;4163
652;2.1071027000007234;4151
653;2.1111618000004455;4139
654;2.11516710000069;4127
655;2.1191014000005453;4113
656;2.12158940000063;4103
657;2.125181000000339;4096
658;2.129168600000412;4082
659;2.133136600000398;4068
660;2.137089500000002;4055
661;2.1410725000005186;4041
662;2.1451676000006046;4027
663;2.1491648999999597;4011
664;2.152727500000765;3996
665;2.15567160000046;3983
666;2.1591121000001294;3972
667;2.1631592000003366;3958
668;2.1671268000000055;3941
669;2.171152000000802;3926
670;2.1740881000005174;3911
671;2.1781579000007696;3897
672;2.181703200000811;3880
673;2.1851402000002054;3867
674;2.1887939000007464;3851
675;2.1921133000005284;3836
676;2.1961810000002515;3821
677;2.2001545000002807;3803
678;2.2041603000006944;3785
679;2.207112500000221;3770
680;2.2111490000006597;3753
681;2.2147615000003498;3735
682;2.219178300000749;3718
683;2.222580700000435;3698
684;2.226107200000115;3682
685;2.2298476000005394;3666
686;2.2341620000006515;3646
687;2.2381553000004715;3627
688;2.241078600000037;3609
689;2.2449180000003253;3593
690;2.2491837000006853;3574
691;2.2531503000000157;3553
692;2.257101500000317;3533
693;2.260592600000564;3513
694;2.2635748000002422;3496
695;2.2671447000002445;3480
696;2.271159599999919;3460
697;2.273667800000112;3442
698;2.2767456000001403;3427
699;2.279827500000465;3408
700;2.282736600000135;3393
701;2.2858319000006304;3376
702;2.2887117000000217;3360
703;2.2915993000005983;3345
704;2.294516300000396;3331
705;2.2966028000000733;3315
706;2.299604000000727;3302
707;2.302596000000449;3285
708;2.3056179000004704;3269
709;2.3089841999999408;3253
710;2.3119400000005044;3232
711;2.314800500000274;3216
712;2.317811900000379;3199
713;2.3207658999999694;3183
714;2.32363179999993;3167
715;2.327128900000389;3151
716;2.330857100000685;3127
717;2.3337993000004644;3107
718;2.33676480000031;3090
719;2.3397658000003503;3075
720;2.3427611000006436;3057
721;2.3457588000001124;3040
722;2.348758000000089;3021
723;2.3518284000001586;3006
