;time;amplitude
0;0.003985899999861431;2405
1;0.007956499999636435;2404
2;0.01174799999989773;2402
3;0.01531280000017432;2401
4;0.018360000000029686;2400
5;0.02135439999983646;2399
6;0.02440039999964938;2398
7;0.027267899999969814;2397
8;0.030378200000086508;2396
9;0.03342700000030163;2395
10;0.03641929999957938;2394
11;0.039402399999744375;2394
12;0.04241840000031516;2393
13;0.04541030000018509;2392
14;0.04841779999969731;2391
15;0.05140630000005331;2389
16;0.05441460000020015;2388
17;0.057421700000304554;2387
18;0.06040889999985666;2387
19;0.0633455999995931;2386
20;0.06645860000026005;2385
21;0.07075859999986278;2384
22;0.07472460000008141;2383
23;0.07876260000011825;2382
24;0.08173110000007;2381
25;0.08588400000007823;2380
26;0.0898723999998765;2378
27;0.09387470000001485;2377
28;0.09787560000040685;2376
29;0.1018685999997615;2375
30;0.10589619999973365;2374
31;0.10972669999955542;2373
32;0.11333800000011252;2371
33;0.1167185000003883;2371
34;0.12080630000036763;2370
35;0.12468970000008994;2369
36;0.1277053000003434;2368
37;0.13179800000034447;2367
38;0.13580029999957333;2366
39;0.1398087999996278;2365
40;0.14351259999966715;2364
41;0.14637930000026245;2363
42;0.14954450000004726;2362
43;0.1535713000002943;2361
44;0.15654489999997168;2360
45;0.15953199999967183;2360
46;0.16264140000021143;2359
47;0.16680249999990338;2358
48;0.17080189999978757;2357
49;0.17468379999991157;2356
50;0.1777179000000615;2355
51;0.1817548999997598;2354
52;0.18581100000028528;2353
53;0.18980129999999917;2352
54;0.19380519999958778;2351
55;0.19774729999971896;2350
56;0.20180330000039248;2349
57;0.20580189999964205;2348
58;0.2098132999999507;2347
59;0.21332739999979822;2346
60;0.21772739999960322;2345
61;0.22172339999997348;2345
62;0.22581369999988965;2344
63;0.22923660000014934;2343
64;0.23222030000033556;2342
65;0.23522959999991144;2341
66;0.23882620000040333;2341
67;0.24290360000031797;2340
68;0.24647929999991902;2339
69;0.2507968999998411;2338
70;0.2548022000000856;2337
71;0.25861280000026454;2337
72;0.2617910999997548;2336
73;0.26473540000006324;2335
74;0.26881260000027396;2334
75;0.27279989999988175;2332
76;0.27571999999963737;2332
77;0.2787185999995927;2331
78;0.2817637999996805;2331
79;0.2857985999999073;2330
80;0.28979249999974854;2329
81;0.2937995000002047;2328
82;0.2977485000001252;2327
83;0.30180529999961436;2326
84;0.3057624000002761;2326
85;0.30980100000033417;2325
86;0.31328860000030545;2324
87;0.3167202000004181;2324
88;0.3197172000000137;2323
89;0.32379969999965397;2323
90;0.3278061999999409;2322
91;0.33179130000007717;2322
92;0.33580410000013217;2321
93;0.33876539999982924;2321
94;0.34280409999973926;2321
95;0.3463371999996525;2320
96;0.34973619999982475;2319
97;0.353575400000409;2318
98;0.35657420000006823;2318
99;0.35955720000038127;2318
100;0.3625816000003397;2318
101;0.36556130000008125;2317
102;0.3681906000001618;2316
103;0.37152770000011515;2316
104;0.37439549999999144;2315
105;0.3775101999999606;2315
106;0.38023450000036974;2314
107;0.38356000000021595;2314
108;0.38653210000029503;2313
109;0.3895309999998062;2312
110;0.3925310000004174;2311
111;0.39552829999956884;2311
112;0.39852890000020125;2310
113;0.4015380000000732;2310
114;0.40452559999994264;2310
115;0.4075315000000046;2309
116;0.41053180000017164;2309
117;0.41317849999995815;2308
118;0.41653949999999895;2308
119;0.41953800000010233;2308
120;0.4225256999998237;2307
121;0.4255420999998023;2308
122;0.42853290000039124;2307
123;0.4311177999998108;2306
124;0.43454490000021906;2306
125;0.4375356999998985;2306
126;0.44053340000027674;2306
127;0.4435280999996394;2306
128;0.4461881999995967;2306
129;0.4495335999999952;2305
130;0.4525320000002466;2306
131;0.4555292000004556;2305
132;0.4585383000003276;2305
133;0.4615317999996478;2305
134;0.4645401999996466;2305
135;0.4675300999997489;2305
136;0.47053520000008575;2305
137;0.473537199999555;2305
138;0.4765322000002925;2305
139;0.4792043999996167;2305
140;0.48222509999959584;2304
141;0.48553139999967243;2304
142;0.4885338000003685;2304
143;0.4915332999999009;2304
144;0.4942561999996542;2303
145;0.49752170000010665;2303
146;0.5005263000002742;2303
147;0.503518599999552;2303
148;0.5065256999996564;2303
149;0.5094201000001704;2302
150;0.512481800000387;2302
151;0.5154991999997947;2302
152;0.5184933999998975;2302
153;0.5214893000002121;2302
154;0.5243489000004047;2301
155;0.5274745999995503;2301
156;0.5304976999996143;2301
157;0.5334935000000769;2301
158;0.5364780999998402;2301
159;0.5395003000003271;2301
160;0.5433617999997296;2301
161;0.54618709999977;2301
162;0.5495318000002953;2301
163;0.5525135999996564;2301
164;0.5554928999999902;2301
165;0.5584945999999036;2301
166;0.5614902999996048;2301
167;0.5644948999997723;2301
168;0.567494799999622;2301
169;0.570500599999832;2301
170;0.5743721999997433;2301
171;0.5774940000001152;2301
172;0.5800695999996606;2301
173;0.5834462000002532;2301
174;0.586501099999623;2301
175;0.5895115000002988;2301
176;0.5925237000001289;2301
177;0.5955223000000842;2301
178;0.5983849000003829;2301
179;0.6013790999995763;2301
180;0.6043822999999975;2301
181;0.60739889999968;2301
182;0.6103741999995691;2301
183;0.6131689000003462;2301
184;0.6165253999997731;2302
185;0.619494599999598;2302
186;0.6224933000003148;2302
187;0.6254972999995516;2302
188;0.6284987999997611;2302
189;0.631518999999571;2302
190;0.6344932000001791;2303
191;0.6374917000002824;2303
192;0.6405038000002605;2303
193;0.6435007999998561;2303
194;0.6460149000004094;2303
195;0.6495328000000882;2303
196;0.6524790000003122;2303
197;0.6554751000003307;2304
198;0.6584764999997788;2304
199;0.6614793999997346;2304
200;0.6642628999998124;2304
201;0.6675266000002011;2304
202;0.6704939000001104;2305
203;0.6734878999995999;2305
204;0.6764948000000004;2306
205;0.6792867000003753;2306
206;0.6824698000000353;2306
207;0.685494800000015;2306
208;0.6884995000000345;2306
209;0.6914981999998417;2307
210;0.6944851999996899;2307
211;0.6972391999997853;2307
212;0.6994035999996413;2308
213;0.7024085000002742;2308
214;0.7053981999997632;2308
215;0.7084056000003329;2308
216;0.7114115000003949;2308
217;0.7144139000001815;2309
218;0.7174093000003268;2309
219;0.7204117000001133;2310
220;0.7233984000004057;2310
221;0.7262237000004461;2311
222;0.729326100000435;2311
223;0.7323912000001656;2311
224;0.7353878000003533;2311
225;0.7384205999996993;2311
226;0.7414566999996168;2312
227;0.7443909000003259;2312
228;0.7474153000002843;2312
229;0.7504245000000083;2313
230;0.7534169000000475;2313
231;0.756404200000361;2313
232;0.759266199999729;2314
233;0.7623927000004187;2314
234;0.7653966999996555;2314
235;0.7683997000003728;2314
236;0.7713577000004079;2315
237;0.7744005000004108;2315
238;0.7774096000002828;2315
239;0.7804181000001336;2315
240;0.7833798999999999;2316
241;0.786420100000214;2316
242;0.7892805999999837;2316
243;0.7924148000001878;2317
244;0.7954227999998693;2317
245;0.798433699999805;2317
246;0.8014247999999498;2318
247;0.8042605000000549;2318
248;0.8074248000002626;2319
249;0.8104202000004079;2319
250;0.8132032000003164;2319
251;0.8164156000002549;2319
252;0.8194231999996191;2320
253;0.8224159000001237;2320
254;0.8254097999997612;2321
255;0.8284191000002465;2321
256;0.8314145000003919;2322
257;0.8345233000000007;2322
258;0.837521000000379;2323
259;0.8405257000003985;2323
260;0.8435317000003124;2324
261;0.8462030000000595;2324
262;0.8495167999999467;2324
263;0.8521104000001287;2325
264;0.854196199999933;2326
265;0.8561314999997194;2326
266;0.8581534000004467;2326
267;0.8614930000003369;2326
268;0.8644978000002084;2327
269;0.8675188999995953;2327
270;0.8705128999999943;2328
271;0.8734678999999232;2328
272;0.876506700000391;2329
273;0.8792946000003212;2329
274;0.8824075000002267;2330
275;0.885531699999774;2331
276;0.888534200000322;2331
277;0.8915389000003415;2331
278;0.8945342999995773;2332
279;0.897533199999998;2332
280;0.9003538999995726;2332
281;0.9035368000004382;2333
282;0.9065350000000763;2333
283;0.9095336999998835;2334
284;0.9125413000001572;2334
285;0.9154125000004569;2335
286;0.9185340000003634;2335
287;0.9215371000000232;2336
288;0.9245326000000205;2336
289;0.9275309000004199;2337
290;0.9301661999998032;2338
291;0.9335437999998248;2338
292;0.9365309000004345;2339
293;0.9395275999995647;2339
294;0.9425339999997959;2340
295;0.9455027000003611;2341
296;0.9485295000004044;2341
297;0.9515319000001909;2341
298;0.9545269999998709;2342
299;0.9575333000002502;2342
300;0.960539499999868;2343
301;0.9632342000004428;2343
302;0.9665345000003072;2344
303;0.9695347999995647;2345
304;0.9725429000000076;2346
305;0.9755367999996452;2346
306;0.9782526999997572;2347
307;0.9815320999996402;2347
308;0.9845408000001044;2348
309;0.9875272999997833;2349
310;0.9905474999995931;2350
311;0.9931107000002157;2350
312;0.9961888999996518;2351
313;0.9995294999998805;2352
314;1.0025354999997944;2352
315;1.0055321999998341;2353
316;1.0085086999997657;2354
317;1.0114062000002377;2354
318;1.0145427999996173;2355
319;1.0175310000004174;2355
320;1.0205409000000145;2356
321;1.0235276000003068;2357
322;1.0265531000004557;2358
323;1.0292885999997452;2358
324;1.0325351999999839;2359
325;1.0355327999996007;2359
326;1.0385385999998107;2360
327;1.0415438999998514;2361
328;1.0445270000000164;2361
329;1.0475318999997398;2362
330;1.05052969999997;2363
331;1.0535314999997354;2363
332;1.056530500000008;2364
333;1.0595266999998785;2365
334;1.0625308999997287;2365
335;1.0655304000001706;2365
336;1.06851800000004;2366
337;1.0714954000004582;2366
338;1.0745213999998668;2367
339;1.077524500000436;2367
340;1.0805189000002429;2368
341;1.0832569000003787;2369
342;1.086523699999816;2369
343;1.0895215000000462;2370
344;1.0925237000001289;2371
345;1.0954938000004404;2372
346;1.0985325999999986;2372
347;1.1015214999997625;2373
348;1.104185399999551;2374
349;1.1075223999996524;2376
350;1.110529300000053;2377
351;1.1132917000004454;2377
352;1.1165358999996897;2378
353;1.1195089000002554;2379
354;1.1222870000001421;2380
355;1.1242128000003504;2380
356;1.1272861999996167;2381
357;1.130149800000254;2382
358;1.1322818999997253;2383
359;1.1342178000004424;2383
360;1.137277499999982;2384
361;1.1392138999999588;2385
362;1.1422695999999632;2385
363;1.1452909999998155;2386
364;1.1471960999997464;2387
365;1.1492113000003883;2388
366;1.1522678999999698;2388
367;1.154211099999884;2389
368;1.1572790000000168;2390
369;1.159236200000123;2390
370;1.162259499999891;2391
371;1.1642838999996457;2392
372;1.1662855000004129;2392
373;1.1692823000003045;2393
374;1.1711975999996866;2393
375;1.1742739999999685;2394
376;1.1762259999995877;2395
377;1.1782645000002958;2395
378;1.1802385000000868;2396
379;1.1832854000003863;2397
380;1.1852140000000873;2397
381;1.188276500000029;2398
382;1.1901969000000463;2398
383;1.1932833000000755;2399
384;1.1961075999997774;2400
385;1.1999064999999973;2401
386;1.2039146999995864;2402
387;1.207891600000039;2403
388;1.2117801000003965;2404
389;1.2147451999999248;2405
390;1.2187943999997515;2405
391;1.2227923999998893;2407
392;1.2262750999998389;2407
393;1.229173499999888;2408
394;1.2324926000001142;2409
395;1.2354917000002388;2410
396;1.238495100000364;2410
397;1.2413463000002594;2411
398;1.2445285000003423;2412
399;1.2475280999997267;2413
400;1.2505283000000418;2413
401;1.2535281000000396;2414
402;1.256481000000349;2415
403;1.2595172999999704;2415
404;1.2624910000004093;2416
405;1.2655045999999857;2417
406;1.2685027999996237;2418
407;1.271498000000065;2419
408;1.2745027000000846;2419
409;1.2775061000002097;2420
410;1.2805076000004192;2421
411;1.283451000000241;2422
412;1.286508799999865;2423
413;1.2895243000002665;2423
414;1.2925046000000293;2424
415;1.2955423000003066;2425
416;1.2985059000002366;2426
417;1.3015113000001293;2427
418;1.3043140999998286;2427
419;1.3074668999997812;2428
420;1.3105009000000791;2429
421;1.3133529999995517;2430
422;1.3165109999999913;2430
423;1.31947080000009;2431
424;1.3225095999996483;2432
425;1.3255048999999417;2432
426;1.3285023999997065;2432
427;1.3315027999997255;2433
428;1.334507399999893;2434
429;1.3383475999999064;2436
430;1.3415043000004516;2436
431;1.3445049000001745;2437
432;1.347515000000385;2437
433;1.350507000000107;2438
434;1.3535033999996813;2439
435;1.3565006999997422;2439
436;1.3595137000002069;2440
437;1.3624968000003719;2441
438;1.3655203999996957;2442
439;1.3685151999998197;2443
440;1.3715062999999645;2444
441;1.374502499999835;2445
442;1.377519200000279;2446
443;1.380512099999578;2446
444;1.3834798999996565;2447
445;1.3865046999999322;2448
446;1.3895050000000992;2449
447;1.392508099999759;2449
448;1.3955406000004587;2451
449;1.398539400000118;2451
450;1.4015087999996467;2452
451;1.4045081000003847;2453
452;1.407452899999953;2454
453;1.410508099999788;2455
454;1.4135121999997864;2455
455;1.4162450000003446;2456
456;1.4192720000000918;2457
457;1.4223159000002852;2457
458;1.4258577999999034;2459
459;1.4294071000003896;2460
460;1.4327853000004325;2461
461;1.4368180000001303;2462
462;1.439481700000215;2462
463;1.4427538999998433;2463
464;1.4462927000004129;2464
465;1.449521100000311;2464
466;1.4524861999998393;2465
467;1.4554858000001332;2466
468;1.458508200000324;2467
469;1.4611604000001535;2468
470;1.4633222000002206;2468
471;1.4665044000003036;2469
472;1.4695056000000477;2470
473;1.4725091999998767;2471
474;1.4755096999997477;2472
475;1.4785161999998309;2473
476;1.4815062999996371;2473
477;1.4845105000003969;2474
478;1.487522600000375;2475
479;1.4905078000001595;2476
480;1.4932693000000654;2477
481;1.4962560000003577;2477
482;1.4995006999997713;2478
483;1.502505000000383;2479
484;1.5055203000001711;2480
485;1.5085021000004417;2480
486;1.5115053999998054;2481
487;1.5145113999997193;2482
488;1.517515800000183;2483
489;1.520502999999735;2484
490;1.5235137999998187;2485
491;1.5265095000004294;2485
492;1.529225399999632;2486
493;1.5325216999999611;2486
494;1.5355122999999367;2487
495;1.5385132999999769;2488
496;1.5415094999998473;2489
497;1.5445057999995697;2490
498;1.5475211000002673;2491
499;1.5505172000002858;2491
500;1.5535110000000714;2492
501;1.5572973999996975;2493
502;1.5605124000003343;2493
503;1.5635081999998874;2495
504;1.566510599999674;2495
505;1.5694985000000088;2496
506;1.5725162999997337;2496
507;1.575503099999878;2497
508;1.5785218999999415;2498
509;1.581506300000001;2499
510;1.5843213999996806;2500
511;1.5875083000000814;2500
512;1.5905086000002484;2501
513;1.5935061000000132;2502
514;1.5962589999999182;2502
515;1.5995110000003478;2503
516;1.6023623000000953;2504
517;1.605512500000259;2504
518;1.608512900000278;2505
519;1.6115213000002768;2506
520;1.6145124000004216;2506
521;1.6174705000003087;2507
522;1.6205184000000372;2508
523;1.6235090000000127;2508
524;1.6265051000000312;2509
525;1.6292370000001029;2510
526;1.6325034999999843;2510
527;1.6352457000002687;2511
528;1.6385192999996434;2511
529;1.6415055999996184;2512
530;1.6445053999996162;2513
531;1.647359300000062;2513
532;1.650368300000082;2514
533;1.6533497999998872;2515
534;1.6563403999998627;2515
535;1.6593761000003724;2516
536;1.6622477999999319;2516
537;1.6652741999996579;2517
538;1.6683296000001064;2517
539;1.671335299999555;2518
540;1.6743851999999606;2519
541;1.6773962999996002;2519
542;1.6802631000000474;2520
543;1.6838385000000926;2520
544;1.6878409999999349;2521
545;1.6918089000000691;2522
546;1.6958864999996877;2523
547;1.6998342999995657;2524
548;1.703828099999555;2524
549;1.70764169999984;2525
550;1.7118211999995765;2526
551;1.7147744000003513;2527
552;1.7188339000003907;2527
553;1.7228328000001056;2528
554;1.7268267999997988;2529
555;1.730745200000456;2530
556;1.7348395999997592;2530
557;1.7388073000001896;2531
558;1.742927399999644;2532
559;1.7464051999995718;2533
560;1.7508400999995501;2533
561;1.7548300999997082;2534
562;1.7587788000000728;2535
563;1.7612519000003886;2535
564;1.7642782000002626;2536
565;1.7672703999996884;2536
566;1.7702582000001712;2536
567;1.772158099999615;2537
568;1.776736300000266;2537
569;1.7792835000000196;2538
570;1.782746099999713;2538
571;1.7857164999995803;2538
572;1.7887133000003814;2539
573;1.7912882000000536;2540
574;1.7947383999999147;2540
575;1.7977437999998074;2540
576;1.8007398999998259;2541
577;1.8037414999998873;2541
578;1.8062658999997439;2541
579;1.8095010999995793;2541
580;1.8123697999999422;2541
581;1.8154733999999735;2542
582;1.8184706000001825;2542
583;1.8215147999999317;2542
584;1.824529800000164;2543
585;1.8275337000004583;2543
586;1.8305364999996527;2543
587;1.833531799999946;2544
588;1.836543399999755;2544
589;1.8395321999996668;2544
590;1.842537700000321;2544
591;1.8455373999995572;2545
592;1.8485434000003806;2545
593;1.8515360000001237;2545
594;1.8545670000003156;2546
595;1.8574791999999434;2547
596;1.8605360999999903;2547
597;1.8635378999997556;2547
598;1.8665377999996053;2547
599;1.8695322000003216;2548
600;1.872528599999896;2548
601;1.8755455999998958;2548
602;1.8785731999996642;2549
603;1.8815551999996387;2549
604;1.8841554000000542;2549
605;1.8875693999998475;2549
606;1.890559100000246;2550
607;1.893560399999842;2550
608;1.8962628999997833;2550
609;1.899551800000154;2551
610;1.9025349000003189;2551
611;1.9055349999998725;2551
612;1.9085320000003776;2551
613;1.9115609000000404;2551
614;1.914574000000357;2551
615;1.9175358000002234;2552
616;1.9205484000003707;2552
617;1.9235506000004534;2552
618;1.9265566000003673;2552
619;1.9292269999996279;2552
620;1.932553700000426;2552
621;1.9355417999995552;2553
622;1.9385531999996601;2553
623;1.9415711000001465;2553
624;1.9444979999998395;2553
625;1.9475147000002835;2553
626;1.9505136999996466;2553
627;1.9535171999996237;2553
628;1.9565049000002546;2553
629;1.9595111999997243;2553
630;1.9623027999996339;2553
631;1.9655068000001847;2553
632;1.9685066000001825;2553
633;1.971516800000245;2553
634;1.9745186999998623;2553
635;1.9775841999999102;2553
636;1.980522099999689;2553
637;1.983513999999559;2554
638;1.9865037999998094;2554
639;1.9895144000001892;2553
640;1.9925294000004214;2554
641;1.996282500000234;2554
642;1.9995292000003246;2553
643;2.0025001000003613;2553
644;2.005500100000063;2553
645;2.008497900000293;2553
646;2.011316799999804;2552
647;2.0133769000003667;2552
648;2.0169095999999627;2552
649;2.0206896999998207;2552
650;2.0235413000000335;2553
651;2.0265111999997316;2552
652;2.029174199999943;2552
653;2.0324971000000005;2552
654;2.0355059000003166;2552
655;2.0384968999997;2552
656;2.0415076999997837;2552
657;2.044503899999654;2552
658;2.047507299999779;2552
659;2.050499099999797;2552
660;2.0535024999999223;2552
661;2.056333700000323;2552
662;2.060477799999717;2552
663;2.0633035000000746;2552
664;2.0664592000002813;2552
665;2.0694661999996242;2552
666;2.0725195000004533;2552
667;2.0752624999995533;2553
668;2.0782688999997845;2552
669;2.08130489999985;2553
670;2.084250500000053;2553
671;2.0873246999999537;2552
672;2.0892611999997825;2552
673;2.0912318999999115;2552
674;2.0931994000002305;2552
675;2.095248399999946;2552
676;2.0972203000001173;2552
677;2.099262099999578;2552
678;2.1012512999996034;2552
679;2.103220699999838;2551
680;2.106246999999712;2551
681;2.108252099999845;2551
682;2.1102635999995982;2551
683;2.112156899999718;2551
684;2.1142399999998815;2551
685;2.116243000000395;2551
686;2.1182359000004;2551
687;2.12018530000023;2551
688;2.1222654000002876;2551
689;2.1242646999999124;2551
690;2.126412800000253;2551
691;2.1292413000001034;2550
692;2.1324868000001516;2550
693;2.1354074999999284;2550
694;2.138395799999671;2549
695;2.141446200000246;2549
696;2.1444400000000314;2549
697;2.147448499999882;2548
698;2.150479500000074;2548
699;2.15333499999997;2548
700;2.156440699999621;2548
701;2.159477799999877;2548
702;2.162239999999656;2548
703;2.164270199999919;2548
704;2.1672294999998485;2548
705;2.1702541000004203;2548
706;2.173391199999969;2547
707;2.176362500000323;2547
708;2.179405900000347;2548
709;2.182310199999847;2547
710;2.1853737999999794;2547
711;2.1883801000003587;2547
712;2.191464900000028;2546
713;2.1944069999999556;2546
714;2.1974527000002126;2546
715;2.2004470000001675;2546
716;2.2034562999997434;2545
717;2.2064635999995517;2545
718;2.209381900000153;2546
