;time;amplitude
0;0.002911399998993147;2451
1;0.007034299998849747;2451
2;0.010913000000073225;2450
3;0.015026099999886355;2449
4;0.017866599999251775;2449
5;0.02130810000016936;2448
6;0.025368999999045627;2448
7;0.02877759999864793;2447
8;0.03239190000022063;2447
9;0.036394799999470706;2446
10;0.040389399999185116;2446
11;0.044320999999399646;2445
12;0.048872499999561114;2445
13;0.052303000000392785;2444
14;0.05633839999973134;2443
15;0.06037870000000112;2442
16;0.06388689999948838;2441
17;0.06730269999934535;2440
18;0.07123789999968722;2439
19;0.07539369999904011;2438
20;0.0788615999990725;2438
21;0.08210089999920456;2437
22;0.08644029999959457;2436
23;0.09040939999977127;2436
24;0.09380029999920225;2435
25;0.0967796000004455;2434
26;0.09972589999961201;2434
27;0.10319220000019413;2433
28;0.10725160000038159;2432
29;0.11091649999980291;2432
30;0.11516549999942072;2431
31;0.1191410999999789;2430
32;0.1232571000000462;2430
33;0.1273246000000654;2429
34;0.13111829999979818;2429
35;0.1339324000000488;2428
36;0.13693349999994098;2428
37;0.1410593999989942;2427
38;0.1442248000003019;2426
39;0.14809719999902882;2426
40;0.1522765999998228;2426
41;0.15612829999918176;2425
42;0.15989819999958854;2424
43;0.16312289999950735;2423
44;0.16714599999977509;2422
45;0.17126619999908144;2422
46;0.17374740000013844;2421
47;0.17719649999889953;2421
48;0.179925499998717;2420
49;0.18318299999918963;2419
50;0.18714469999940775;2418
51;0.19114429999899585;2418
52;0.19479299999875366;2417
53;0.19809849999910512;2416
54;0.20223609999993641;2415
55;0.20509669999955804;2414
56;0.20924740000009479;2414
57;0.21313499999996566;2413
58;0.21726159999889205;2413
59;0.22087029999966035;2412
60;0.22419090000039432;2411
61;0.22773579999920912;2411
62;0.23122890000013285;2411
63;0.23523349999959464;2410
64;0.23913100000027043;2409
65;0.2428020999996079;2409
66;0.24630619999879855;2408
67;0.2502143999990949;2407
68;0.25415069999871776;2407
69;0.2578217999998742;2406
70;0.2617348999992828;2405
71;0.26520220000020345;2405
72;0.26907779999964987;2405
73;0.2732660000001488;2404
74;0.2774164999991626;2404
75;0.281129900000451;2403
76;0.2851024999999936;2402
77;0.2890854999986914;2402
78;0.2932206999994378;2401
79;0.29727639999873645;2401
80;0.3011475999992399;2401
81;0.3052499999994325;2400
82;0.30890069999986736;2399
83;0.31317870000020775;2399
84;0.3172388000002684;2399
85;0.3212493999999424;2398
86;0.32482080000045244;2398
87;0.32919269999911194;2398
88;0.3332458000004408;2397
89;0.33712310000009893;2397
90;0.34074059999875317;2396
91;0.3441110000003391;2396
92;0.3482850000000326;2396
93;0.352230899999995;2396
94;0.3562354999994568;2396
95;0.3600877999997465;2395
96;0.36319779999939783;2395
97;0.36727979999886884;2396
98;0.3711585999990348;2395
99;0.3747552999993786;2394
100;0.37919609999880777;2395
101;0.383273299999928;2394
102;0.3871244999991177;2394
103;0.3907125999994605;2394
104;0.3937802999989799;2394
105;0.39671029999954044;2393
106;0.39965379999921424;2393
107;0.40276209999865387;2393
108;0.4062741999987338;2394
109;0.4102714999989985;2394
110;0.4142240999990463;2394
111;0.4182119999986753;2394
112;0.4206140999995114;2393
113;0.42420270000002347;2394
114;0.42773359999955574;2394
115;0.43105759999889415;2394
116;0.4350747999997111;2394
117;0.43922310000016296;2394
118;0.44321769999987737;2394
119;0.4472440999998071;2394
120;0.45091099999990547;2393
121;0.45524209999894083;2394
122;0.45921869999983755;2394
123;0.46314039999924717;2395
124;0.46683370000027935;2395
125;0.47015660000033677;2395
126;0.4742324999988341;2395
127;0.4777299999987008;2395
128;0.48115519999919343;2395
129;0.4847083999993629;2396
130;0.48819410000032804;2396
131;0.49221439999928407;2396
132;0.4961900999987847;2396
133;0.5001453000004403;2396
134;0.504160899999988;2396
135;0.5082356000002619;2397
136;0.512135799999669;2397
137;0.5146915999994235;2397
138;0.5182170999996742;2398
139;0.5221338999999716;2399
140;0.5262091999993572;2400
141;0.5289508999994723;2401
142;0.5332361999990098;2401
143;0.5372096999999485;2401
144;0.5412230999991152;2401
145;0.5447752000000037;2402
146;0.5481605999993917;2402
147;0.5521805999997014;2403
148;0.5562903999998525;2403
149;0.5602760000001581;2404
150;0.5643065999993269;2404
151;0.5682655999989947;2405
152;0.5722103999996762;2406
153;0.5763128999988112;2407
154;0.5803073999995831;2407
155;0.5841031999989355;2407
156;0.5882134000003134;2408
157;0.5922461999998632;2408
158;0.5962144999994052;2408
159;0.6002121999990777;2408
160;0.6041844999999739;2409
161;0.6078870000001189;2409
162;0.6107910999999149;2410
163;0.614153599999554;2411
164;0.6182158999999956;2412
165;0.6221378999998706;2412
166;0.6246875999986514;2412
167;0.6275601999986975;2413
168;0.630576800000199;2413
169;0.6336933000002318;2414
170;0.6371794999995473;2415
171;0.6412851000004594;2416
172;0.644726599999558;2416
173;0.6482383000002301;2416
174;0.6522714999991877;2417
175;0.6562297000000399;2418
176;0.6602415999986988;2419
177;0.6642016999994667;2420
178;0.6681883000001108;2421
179;0.6721122999988438;2421
180;0.6762053999991622;2422
181;0.679127299999891;2423
182;0.683200699999361;2424
183;0.687108399999488;2424
184;0.6912081999998918;2425
185;0.6947951999991346;2426
186;0.6981366999989405;2427
187;0.7021289999993314;2428
188;0.7050284999986616;2429
189;0.7092050999999628;2429
190;0.7131224000004295;2429
191;0.7171500000004016;2430
192;0.7200811000002432;2430
193;0.7239907999992283;2431
194;0.7275786999998672;2432
195;0.7309177999995882;2432
196;0.7340383999999176;2433
197;0.7370995999990555;2434
198;0.740922099999807;2434
199;0.7446921999999176;2435
200;0.7480577999995148;2434
201;0.7522060999999667;2435
202;0.7561968999998498;2436
203;0.7597136999993381;2437
204;0.7631991999987804;2438
205;0.7672125999997661;2438
206;0.7711879999988014;2439
207;0.7750851000000694;2440
208;0.7775478000003204;2440
209;0.7806757999987894;2440
210;0.7836778999990202;2441
211;0.7867162000002281;2442
212;0.7899338999995962;2443
213;0.7928130999989662;2444
214;0.7959106999987853;2445
215;0.7988408999990497;2445
216;0.801822199999151;2446
217;0.8048299999991286;2447
218;0.8078179000003729;2447
219;0.8106183999989298;2448
220;0.8137508999989223;2448
221;0.8167477999995754;2448
222;0.8197364999996353;2449
223;0.8227360999990196;2450
224;0.8257157999996707;2450
225;0.8287331999999878;2451
226;0.8318005999990419;2451
227;0.8347873000002437;2452
228;0.83779130000039;2452
229;0.8408910999987711;2452
230;0.843634299999394;2453
231;0.8468783999996958;2453
232;0.8497948000003817;2454
233;0.8527971000003163;2454
234;0.8558823999992455;2454
235;0.8585499999990134;2454
236;0.8617565999993531;2454
237;0.8647753999994165;2455
238;0.8677817999996478;2455
239;0.8707760999986931;2456
240;0.8735868000003393;2456
241;0.8767752000003384;2457
242;0.8797806000002311;2457
243;0.8827788999988115;2457
244;0.8857845999991696;2458
245;0.8887763999991876;2459
246;0.8917700000001787;2459
247;0.8947769999995216;2459
248;0.8977660999989894;2460
249;0.9007884000002377;2460
250;0.9037738999995781;2460
251;0.9067028999998001;2460
252;0.9096704000003228;2461
253;0.9126698000000033;2461
254;0.9156779000004462;2461
255;0.918677800000296;2461
256;0.9216763999993418;2462
257;0.924678600000334;2462
258;0.9274858999997377;2462
259;0.9306767999987642;2463
260;0.9336788000000524;2463
261;0.9366277999997692;2463
262;0.9396993999998813;2464
263;0.9426836000002368;2464
264;0.9456821999992826;2464
265;0.9486780999995972;2464
266;0.9516817999992782;2464
267;0.9546915999999328;2464
268;0.957677499998681;2464
269;0.9605038999998214;2464
270;0.9636813999986771;2464
271;0.9666939999988244;2464
272;0.9696793999992224;2464
273;0.9726830999989033;2464
274;0.9756818999994721;2464
275;0.9786795999989408;2465
276;0.981679599999552;2465
277;0.9846851999991486;2465
278;0.9876790999987861;2466
279;0.9907863999997062;2466
280;0.9936281999998755;2466
281;0.9967892999993637;2466
282;0.9997989999992569;2466
283;1.0027735000003304;2465
284;1.005770300000222;2465
285;1.008788999999524;2465
286;1.0118891000001895;2465
287;1.014721699999427;2465
288;1.017805600000429;2464
289;1.0207940000000235;2464
290;1.023801100000128;2464
291;1.0268711999997322;2464
292;1.0297688999999082;2464
293;1.03281380000044;2464
294;1.0357846999995672;2464
295;1.0387871000002633;2463
296;1.0417773999997735;2463
297;1.0448034000000916;2463
298;1.0475188999989768;2463
299;1.0507820999991964;2462
300;1.0537604999990435;2462
301;1.0567800999997417;2462
302;1.059780800000226;2462
303;1.0625199999994948;2462
304;1.0657816999992065;2461
305;1.0687868999993952;2461
306;1.0717894999997952;2460
307;1.0747914999992645;2460
308;1.0774975000003906;2460
309;1.080779199999597;2460
310;1.0837878999991517;2460
311;1.0867873999995936;2460
312;1.0897973999999522;2460
313;1.0928008999999292;2459
314;1.0957884999988892;2459
315;1.0988043999986985;2459
316;1.1017902999992657;2458
317;1.1048030000001745;2458
318;1.1077889999996842;2458
319;1.1105128999988665;2457
320;1.1137932000001456;2457
321;1.1167945999986841;2457
322;1.1197933999992529;2457
323;1.1227827000002435;2457
324;1.1257857000000513;2456
325;1.1289005999988149;2456
326;1.1317511999986891;2455
327;1.1347937999998976;2454
328;1.1377967999997054;2454
329;1.1404695000001084;2454
330;1.1435893999987456;2454
331;1.1467770999988716;2453
332;1.1496752000002743;2453
333;1.1526792999993631;2452
334;1.1556495999993786;2452
335;1.1586812999994436;2451
336;1.1617786999995587;2451
337;1.1647697999997035;2450
338;1.167771200000061;2450
339;1.170779500000208;2449
340;1.17377309999938;2449
341;1.1767787999997381;2449
342;1.179675399998814;2448
343;1.1826810000002297;2447
344;1.185676199998852;2447
345;1.1886876999997185;2446
346;1.1916737999999896;2446
347;1.1947744999997667;2445
348;1.1977735999989818;2444
349;1.20077449999917;2444
350;1.2037767999991047;2444
351;1.2067083999991155;2443
352;1.209676299999046;2443
353;1.2126798999997845;2442
354;1.2156802999998035;2441
355;1.2186394999989716;2440
356;1.2216341999992437;2440
357;1.2246689999992668;2440
358;1.2275148999997327;2439
359;1.2306128000000172;2438
360;1.2336555999991106;2438
361;1.236684100000275;2438
362;1.2397836000000098;2437
363;1.242630900000222;2437
364;1.2457065999988117;2436
365;1.2486599999992904;2436
366;1.2516557999988436;2435
367;1.2547567000001436;2435
368;1.2576780999988841;2434
369;1.260623799998939;2434
370;1.2636967999987974;2434
371;1.2668009999997594;2433
372;1.2697979000004125;2432
373;1.2726893999988533;2432
374;1.275713299999552;2431
375;1.2787102999991475;2431
376;1.2818098999996437;2430
377;1.2848373999986507;2429
378;1.2878258999990067;2429
379;1.2905688999999256;2429
380;1.2935407999993913;2428
381;1.2969142000001739;2428
382;1.2998145000001387;2427
383;1.3028066999995644;2427
384;1.3057697999993252;2426
385;1.308546700000079;2425
386;1.3116880999987188;2425
387;1.3148182999993878;2424
388;1.3176162999989174;2423
389;1.3207769000000553;2423
390;1.3237821999991866;2422
391;1.3267692999997962;2422
392;1.3296503000001394;2421
393;1.3327406999997038;2420
394;1.335569900000337;2419
395;1.338639499999772;2419
396;1.3416478999988612;2419
397;1.3446059999987483;2419
398;1.3477793000001839;2418
399;1.350779299998976;2417
400;1.3536955999989004;2416
401;1.3567834999994375;2416
402;1.359763499998735;2415
403;1.3627071999999316;2415
404;1.3658617999990383;2414
405;1.3700834999999643;2414
406;1.3741903999998613;2413
407;1.3779883999995945;2412
408;1.3822010000003502;2411
409;1.386178299999301;2410
410;1.390097399998922;2410
411;1.3938113000003796;2409
412;1.3967142000001331;2409
413;1.3995142000003398;2408
414;1.4024842999988323;2408
415;1.4043750000000728;2407
416;1.406342999998742;2407
417;1.4083438999987266;2406
418;1.4103772999987996;2405
419;1.4127147999988665;2405
420;1.4155883000003087;2405
421;1.4186253999996552;2405
422;1.4216464999990421;2405
423;1.4244476999992912;2404
424;1.4272564000002603;2404
425;1.4311636000002181;2403
426;1.435232099998757;2403
427;1.4390516000003117;2402
428;1.4420711000002484;2401
429;1.4461243999994622;2401
430;1.4502288999992743;2400
431;1.4542268999994121;2400
432;1.4580838999991101;2400
433;1.4621981000000233;2400
434;1.4661158999988402;2399
435;1.4703429000001051;2398
436;1.474191499999506;2398
437;1.4777214999994612;2398
438;1.481085699999312;2398
439;1.4852310999995098;2397
440;1.4882020999993983;2396
441;1.492202699999325;2396
442;1.4962240000004385;2395
443;1.5001957999993465;2395
444;1.504249899999195;2394
445;1.5082204999998794;2394
446;1.5121971999997186;2393
447;1.5161435999998503;2394
448;1.518498699999327;2393
449;1.5221846999993431;2393
450;1.526183599999058;2392
451;1.5291672999992443;2392
452;1.532943999998679;2392
453;1.5360101999995095;2392
454;1.540111500000421;2392
455;1.5437731000001804;2392
456;1.5481971999997768;2392
457;1.552180099999532;2392
458;1.5561922999986564;2392
459;1.560225299999729;2393
460;1.5641938999997365;2393
461;1.5681907999987743;2393
462;1.5720891999990272;2393
463;1.576196500000151;2393
464;1.5791542999995727;2394
465;1.5825874999991356;2394
466;1.5850239999999758;2394
467;1.5881107999994128;2394
468;1.5921906999992643;2394
469;1.5957624000002397;2394
470;1.600194399999964;2395
471;1.6041779999995924;2395
472;1.6081878999993933;2394
473;1.612130800000159;2394
474;1.6158304000000498;2394
475;1.6190394999994169;2394
476;1.6231933999988541;2395
477;1.6270002999990538;2394
478;1.6301134999994247;2395
479;1.6340332999989187;2395
480;1.6381906999995408;2395
481;1.6421571999999287;2396
482;1.6460929000004398;2396
483;1.6501884999997856;2396
484;1.654191699999501;2396
485;1.6581699999987904;2397
486;1.660579699999289;2397
487;1.6641538000003493;2398
488;1.6681895999990957;2398
489;1.6720790999988822;2398
490;1.6761926999988646;2399
491;1.6791276000003563;2399
492;1.6831849999998667;2400
493;1.6871104999991076;2401
494;1.6909546999995655;2401
495;1.6935777999988204;2402
496;1.6969035000001895;2402
497;1.6999025000004622;2402
498;1.7028644000001805;2403
499;1.7055906999994477;2403
500;1.7089249999989988;2403
501;1.7119239999992715;2403
502;1.7149102999992465;2403
503;1.717920299999605;2403
504;1.7209500999997545;2404
505;1.7238913999990473;2404
506;1.7267916000000696;2405
507;1.7300266999991436;2405
508;1.7332002999992255;2406
509;1.7368143999992753;2406
510;1.7408545999987837;2407
511;1.7436481000004278;2407
512;1.74712609999915;2408
513;1.7509618999993108;2408
514;1.7539478999988205;2408
515;1.7569284999990487;2408
516;1.7596596000003046;2409
517;1.7628726000002644;2409
518;1.7658774999999878;2410
519;1.7688679999992019;2410
520;1.7718968999997742;2410
521;1.7748346999997011;2411
522;1.777833099999043;2411
523;1.7809065999990707;2412
524;1.7839017999995121;2413
525;1.7869019999998272;2413
526;1.7899027000003116;2414
527;1.7928113999987545;2414
528;1.7957379999988916;2415
529;1.798914799999693;2415
530;1.8018770999988192;2416
531;1.8048935999995592;2416
532;1.808798599999136;2416
533;1.8117972000000009;2417
534;1.814890199999354;2418
535;1.817876699999033;2418
536;1.8208935000002384;2419
537;1.8234912999996595;2420
538;1.8254668999998103;2420
539;1.8276323999998567;2421
540;1.8308243999999831;2421
541;1.833601099999214;2422
542;1.8368238999992172;2422
543;1.8403531000003568;2423
544;1.8426266999995278;2424
545;1.8455082000000402;2424
546;1.8484872999997606;2425
547;1.8516323999992892;2426
548;1.85466759999872;2426
549;1.856608399999459;2426
550;1.859565200000361;2427
551;1.8615642999993725;2427
552;1.8645032999993418;2428
553;1.8675531999997474;2428
554;1.8707675999994535;2429
555;1.8737999999993917;2430
556;1.8768161999996664;2430
557;1.879809000000023;2431
558;1.8828045999998722;2432
559;1.8858112999987497;2432
560;1.8888071000001219;2432
561;1.8918068999992101;2433
562;1.8948137999996106;2433
563;1.8978119999992487;2434
564;1.9008100999999442;2434
565;1.9038091999991593;2434
566;1.9068069999993895;2435
567;1.9096792000000278;2436
568;1.9128137999996397;2437
569;1.9158108999999968;2437
570;1.918805600000269;2438
571;1.9218179999988934;2438
572;1.924634299999525;2438
573;1.9277012999991712;2439
574;1.9307425999995758;2440
575;1.9337163000000146;2440
576;1.936740799999825;2441
577;1.939735899999505;2442
578;1.9427471999988484;2442
579;1.945763599998827;2443
580;1.9487630000003264;2443
581;1.951822799999718;2444
582;1.9548217999999906;2444
583;1.9575865999995585;2445
584;1.9606036999994103;2445
585;1.9638202999994974;2446
586;1.9667439000004379;2446
587;1.969812399998773;2446
588;1.9725806999995257;2448
589;1.9759228999992047;2448
590;1.9788453000001027;2449
591;1.9818347999989783;2449
592;1.9848416000004363;2449
593;1.9878733999994438;2450
594;1.9909205999992992;2451
595;1.993515699999989;2451
596;1.9968284999995376;2452
597;1.999836499999219;2453
598;2.0029341999997996;2453
599;2.005902299999434;2453
600;2.008910799999285;2454
601;2.0119080999993457;2454
602;2.0148262999991857;2455
603;2.017827599998782;2455
604;2.0209176999997;2455
605;2.0238981999991665;2455
606;2.0267316999998;2456
607;2.0299051999991207;2456
608;2.032840199999555;2456
609;2.0357825999999477;2457
610;2.038787899999079;2458
611;2.0417758999992657;2458
612;2.0448037999994995;2459
613;2.0477840999992623;2459
614;2.0507496999998693;2459
615;2.0537864999987505;2460
616;2.057315500000186;2460
617;2.060710599998856;2461
618;2.0642957000000024;2461
619;2.068174199999703;2461
620;2.072300699999687;2462
621;2.0761566999990464;2462
622;2.079145800000333;2463
623;2.0829680999995617;2463
624;2.0861138999989635;2463
625;2.0901229999999487;2463
626;2.0937051000000793;2464
627;2.097133199999007;2465
628;2.1012070999986463;2465
629;2.1050955999999132;2465
630;2.1092091999998956;2465
631;2.1121499000000767;2465
632;2.115105799999583;2465
633;2.1191933999998582;2465
634;2.122098300000289;2465
635;2.126199700000143;2466
636;2.129149399999733;2466
637;2.1315711999995983;2466
638;2.1335430999988603;2466
639;2.135514300000068;2465
640;2.137877400000434;2466
641;2.1408692999993946;2466
642;2.1435514999993757;2465
643;2.1465759000002436;2465
644;2.1495467000004282;2465
645;2.151557999999568;2464
646;2.154857699999411;2464
647;2.1578212000003987;2465
648;2.1605524999995396;2465
649;2.163922599998841;2465
650;2.166922499998691;2465
651;2.169919399999344;2465
652;2.1729205999999976;2464
653;2.1759148000001005;2464
654;2.1789124999995693;2464
655;2.1819187000000966;2464
656;2.184915399999227;2464
657;2.187920000000304;2465
658;2.19091649999973;2464
659;2.1935863999988214;2464
660;2.196916400000191;2464
661;2.199917899999491;2463
662;2.202921599999172;2463
663;2.2059209999988525;2463
664;2.208921999999802;2463
665;2.2119165000003704;2463
666;2.2149184999998397;2463
667;2.2179144999990967;2463
668;2.2209156999997504;2463
669;2.22344399999929;2462
670;2.2258043000001635;2462
671;2.228942300000199;2462
672;2.2318775999992795;2461
673;2.234838000000309;2461
674;2.2377650999987964;2461
675;2.240758399999322;2461
676;2.2435655999997834;2461
677;2.246907299999293;2461
678;2.2499041999999463;2461
679;2.2529078999996273;2460
680;2.25591969999914;2459
681;2.2588231999998243;2459
682;2.261897599999429;2459
683;2.2648843999995734;2458
684;2.267880299999888;2458
685;2.270888199998808;2458
686;2.273886400000265;2458
687;2.276664699998946;2458
688;2.279890699999669;2457
689;2.282884299998841;2457
690;2.2858847999996215;2456
691;2.2888783999987936;2456
692;2.2918806999987282;2455
693;2.2948935000003985;2455
694;2.2978879999991477;2455
695;2.3008805999998003;2454
696;2.3038823999995657;2454
697;2.3068755000003875;2453
698;2.309876199999053;2453
699;2.3128846999989037;2452
700;2.3158972000001086;2452
701;2.318880900000295;2452
702;2.321609799999351;2451
703;2.324887299999318;2450
704;2.327898499999719;2450
705;2.3308887999992294;2450
706;2.3338616999990336;2449
707;2.3367853999989165;2449
708;2.3398858999989898;2448
709;2.3428895999986707;2448
710;2.3458934999998746;2447
711;2.348880100000315;2447
712;2.3518845999988116;2446
713;2.3548866999990423;2446
714;2.357805499999813;2445
715;2.3607303999997384;2445
716;2.363882999999987;2444
717;2.3668785999998363;2444
718;2.369668499999534;2443
