;time;amplitude
0;0.00455839999995078;2404
1;0.009517299999970419;2404
2;0.014496700000563578;2403
3;0.018501200000173412;2402
4;0.023540500000308384;2401
5;0.028592900000148802;2400
6;0.0321710999996867;2399
7;0.03658499999983178;2399
8;0.040110200000526675;2398
9;0.04454170000008162;2397
10;0.04923239999970974;2397
11;0.05351729999983945;2396
12;0.05863709999994171;2395
13;0.06359260000044742;2394
14;0.06748380000044563;2393
15;0.07155140000031679;2393
16;0.07554429999981949;2392
17;0.08062880000034056;2391
18;0.08445029999984399;2390
19;0.08952580000004673;2389
20;0.0934650999997757;2389
21;0.09813850000045932;2388
22;0.10262090000014723;2387
23;0.10761600000023464;2386
24;0.11262030000034429;2385
25;0.11648150000019086;2384
26;0.12012980000054085;2384
27;0.12415450000025885;2383
28;0.12870380000003934;2382
29;0.13373109999974986;2381
30;0.13877510000020266;2380
31;0.1437820000001011;2379
32;0.1481448000004093;2377
33;0.152736900000491;2377
34;0.1577809000000343;2375
35;0.16268399999989924;2374
36;0.16764549999970768;2373
37;0.17145530000016151;2372
38;0.1751948999999513;2372
39;0.17922509999971226;2371
40;0.18327719999979308;2371
41;0.18726890000016283;2370
42;0.1909302000003663;2369
43;0.19384210000043822;2369
44;0.19688349999978527;2369
45;0.19995680000010907;2368
46;0.20293639999999868;2368
47;0.20593280000048253;2367
48;0.20894980000048236;2367
49;0.2119370999998864;2366
50;0.21489660000042932;2366
51;0.21793440000055853;2365
52;0.22093750000021828;2365
53;0.2239329000003636;2365
54;0.22674180000012711;2364
55;0.22992539999995643;2364
56;0.23294929999974556;2364
57;0.23593479999999545;2364
58;0.23892700000033074;2363
59;0.2417446999997992;2363
60;0.2449298000001363;2363
61;0.24758070000007137;2362
62;0.25068610000016633;2362
63;0.25367310000001453;2361
64;0.25700140000026295;2361
65;0.26023929999973916;2360
66;0.2638976999996885;2359
67;0.26703420000012557;2359
68;0.2698785000002317;2358
69;0.27269539999997505;2358
70;0.2758460000004561;2357
71;0.27887730000020383;2357
72;0.28182120000019495;2357
73;0.28489040000022214;2356
74;0.287697499999922;2355
75;0.29082389999985025;2355
76;0.29379620000054274;2355
77;0.29687400000057096;2355
78;0.29988520000006247;2354
79;0.3028762000003553;2354
80;0.3059030000003986;2354
81;0.30867380000017874;2354
82;0.31187620000036986;2354
83;0.31458629999997356;2353
84;0.31767889999991894;2353
85;0.320673700000043;2352
86;0.3235138999998526;2352
87;0.3257383000000118;2352
88;0.3284627000002729;2352
89;0.33051720000003115;2351
90;0.3328067000002193;2351
91;0.3354341000003842;2351
92;0.3375658000004478;2350
93;0.33962590000010096;2350
94;0.34162300000025425;2349
95;0.34373349999987113;2349
96;0.34673560000010184;2349
97;0.3495091000004322;2349
98;0.35175989999970625;2349
99;0.35472740000022895;2348
100;0.35657780000019557;2348
101;0.35972709999987273;2348
102;0.3624502000002394;2347
103;0.36459500000000844;2347
104;0.36773300000004383;2346
105;0.37050619999990886;2346
106;0.37379500000042754;2345
107;0.376506700000391;2344
108;0.37979660000019067;2344
109;0.3826811999997517;2344
110;0.38587079999979323;2343
111;0.3888726000004681;2342
112;0.39185970000016823;2342
113;0.3948614999999336;2342
114;0.3975999000003867;2341
115;0.3996379000000161;2341
116;0.4028217000004588;2340
117;0.4058348999997179;2340
118;0.4088584000000992;2340
119;0.4115319000002273;2340
120;0.4145766999999978;2340
121;0.4177408000005016;2340
122;0.4208059000002322;2339
123;0.4236080000000584;2339
124;0.42554980000022624;2339
125;0.42767019999973854;2339
126;0.430478100000073;2339
127;0.4326186999996935;2339
128;0.4358801999997013;2339
129;0.43861960000049294;2338
130;0.44185770000058255;2339
131;0.44446680000055494;2338
132;0.4467247000002317;2338
133;0.44862800000009884;2338
134;0.45182740000018384;2338
135;0.45481480000034935;2338
136;0.4576102000000901;2337
137;0.46086100000047736;2337
138;0.46370440000009694;2337
139;0.4668650000003254;2337
140;0.46985599999970873;2337
141;0.4728605999998763;2337
142;0.4758551000004445;2337
143;0.47885610000048473;2337
144;0.48182679999990796;2337
145;0.48491660000036063;2337
146;0.48783739999998943;2337
147;0.49084769999990385;2337
148;0.4934831000000486;2337
149;0.496828700000151;2337
150;0.4995827000002464;2337
151;0.5028603000000658;2337
152;0.5055210999998963;2336
153;0.5077080000000933;2336
154;0.5108140000002095;2337
155;0.5135821000003489;2336
156;0.5168054000005213;2336
157;0.5197046000002956;2336
158;0.5228501999999935;2336
159;0.5267431000002034;2336
160;0.5296045000004597;2336
161;0.531775700000253;2336
162;0.533545100000083;2337
163;0.5357210000001942;2337
164;0.5387163000004875;2336
165;0.5417364000004454;2336
166;0.5447245000004841;2336
167;0.547520799999802;2336
168;0.5495835000001534;2336
169;0.5527302000000418;2336
170;0.5545514000004914;2336
171;0.5567321999997148;2336
172;0.5596740000000864;2336
173;0.5615894000002299;2336
174;0.5645893000000797;2336
175;0.5675959000000148;2336
176;0.570676999999705;2336
177;0.5724228999997649;2336
178;0.5745251999996981;2336
179;0.5767235000002984;2336
180;0.5796763999996983;2336
181;0.581500700000106;2336
182;0.5836776000005557;2336
183;0.5864172999999937;2336
184;0.5884513000000879;2336
185;0.590578700000151;2336
186;0.5937480000002324;2336
187;0.5967146000002685;2336
188;0.5997257999997601;2336
189;0.6015096999999514;2336
190;0.6037286999999196;2336
191;0.6067264000002979;2336
192;0.6086753999998109;2336
193;0.6118186000003334;2336
194;0.6145142000004853;2336
195;0.6165493999997125;2336
196;0.6197382000000289;2336
197;0.622585799999797;2336
198;0.6258453999998892;2336
199;0.6285035999999309;2336
200;0.630536900000152;2336
201;0.6336999000004653;2336
202;0.6365915000005771;2336
203;0.6398201000001791;2336
204;0.6425946999997905;2336
205;0.6457996999997704;2336
206;0.6488184999998339;2335
207;0.6518452999998772;2336
208;0.6548853000003874;2336
209;0.6578636000003826;2336
210;0.6608044000004156;2337
211;0.6635727000002589;2337
212;0.6668273000004774;2337
213;0.66960569999992;2337
214;0.6718618000004426;2337
215;0.6748537000003125;2337
216;0.6775396000002729;2337
217;0.6804990000000544;2337
218;0.682585100000324;2337
219;0.684681400000045;2337
220;0.6878176999998686;2337
221;0.690594400000009;2338
222;0.6927191000004314;2337
223;0.6958676000003834;2337
224;0.6988215999999738;2337
225;0.701828100000057;2337
226;0.704646899999716;2337
227;0.7078220000003057;2337
228;0.71071800000027;2337
229;0.7137699000004432;2336
230;0.7168854000001375;2337
231;0.7202868000003946;2337
232;0.7244024000001446;2336
233;0.7270634000005884;2336
234;0.7297735000001921;2336
235;0.7315802000002805;2336
236;0.7336301000004823;2336
237;0.7368247000003976;2336
238;0.73974410000028;2336
239;0.742815800000244;2336
240;0.7457782999999836;2336
241;0.7488647000000128;2335
242;0.7518614999999045;2335
243;0.7548808000001372;2335
244;0.7577805999999327;2336
245;0.760888700000578;2336
246;0.7637535000003481;2336
247;0.7668807000000015;2336
248;0.7698632999999973;2336
249;0.7725169000004826;2336
250;0.7746417999996993;2336
251;0.7778730999998515;2336
252;0.7804962999998679;2337
253;0.7828165999999328;2337
254;0.785618699999759;2337
255;0.7877398999999059;2337
256;0.7906129000002693;2337
257;0.7937775000000329;2337
258;0.7968007999998008;2336
259;0.7995859000002383;2336
260;0.8028868999999759;2336
261;0.8056305000000066;2336
262;0.808700399999907;2336
263;0.8118467000003875;2336
264;0.8148423000002367;2336
265;0.8181433999998262;2336
266;0.8205895999999484;2336
267;0.8238779000002978;2336
268;0.8265604999996867;2336
269;0.828678900000341;2336
270;0.8318104999998468;2336
271;0.8334912999998778;2335
272;0.8358329000002414;2335
273;0.8388849000002665;2335
274;0.8418206000005739;2335
275;0.8448702000005142;2336
276;0.8475838000003932;2335
277;0.8508957000003647;2335
278;0.8536871000005704;2335
279;0.8567057000000204;2335
280;0.8597876000003453;2335
281;0.8628845000002912;2335
282;0.8658839999998236;2336
283;0.8686306999998124;2336
284;0.8718401000005542;2336
285;0.8746324000003369;2336
286;0.8778543999997055;2336
287;0.8805489000005764;2336
288;0.8826543000004676;2336
289;0.885884299999816;2336
290;0.8885630000004312;2336
291;0.8918399000003774;2336
292;0.8946350000005623;2336
293;0.8974819000004572;2336
294;0.9008254999998826;2336
295;0.9038547000000108;2336
296;0.9068880000004356;2336
297;0.9095563000000766;2336
298;0.9129150999997364;2336
299;0.915574700000434;2336
300;0.919218600000022;2336
301;0.9226722000003065;2336
302;0.9258325000000696;2336
303;0.9286130000000412;2336
304;0.9306085999996867;2335
305;0.9338741000001392;2335
306;0.936666000000514;2335
307;0.9398425999997926;2335
308;0.9426338000002943;2336
309;0.94583270000021;2336
310;0.9488179999998465;2335
311;0.9518921999997474;2336
312;0.9548783999998705;2336
313;0.9576096999999208;2336
314;0.9596270000001823;2336
315;0.9625661999998556;2336
316;0.9656549999999697;2336
317;0.9687331000004633;2336
318;0.972165700000005;2336
319;0.9762854000000516;2336
320;0.9801256999999168;2336
321;0.9830848000001424;2336
322;0.987070400000448;2336
323;0.9899162000001525;2336
324;0.9928596999998263;2336
325;0.9958561000003101;2335
326;0.9987192999997205;2336
327;1.0018650000001799;2336
328;1.0045920000002297;2336
329;1.0078880000000936;2336
330;1.010587900000246;2336
331;1.012744499999826;2335
332;1.0158903000001374;2335
333;1.018597299999783;2335
334;1.0218423000005714;2336
335;1.024509500000022;2336
336;1.027834499999699;2335
337;1.0304567000002862;2335
338;1.0326157999998031;2336
339;1.0358897000005527;2336
340;1.038579199999731;2336
341;1.042099600000256;2336
342;1.0445894000004046;2336
343;1.0466888000000836;2336
344;1.0487933000003977;2336
345;1.0516279000003124;2336
346;1.0537693000005675;2336
347;1.0567147000001569;2336
348;1.0586648999997124;2336
349;1.060747600000468;2336
350;1.063582700000552;2336
351;1.065631200000098;2336
352;1.0677808000000368;2336
353;1.070799000000079;2336
354;1.073645899999974;2336
355;1.0757343000004767;2336
356;1.0776538999998593;2336
357;1.0795393999997032;2336
358;1.0816475999999966;2336
359;1.0847982000004777;2336
360;1.0878184000002875;2336
361;1.0907997000003888;2336
362;1.0938111000004938;2336
363;1.096713699999782;2336
364;1.0996022999997876;2336
365;1.102841900000385;2336
366;1.105586100000437;2336
367;1.108853800000361;2336
368;1.111840100000336;2336
369;1.114709500000572;2337
370;1.1166973999997936;2337
371;1.1195955000002868;2337
372;1.1216690999999628;2337
373;1.1248412000004464;2337
374;1.1277509999999893;2336
375;1.1307635000002847;2337
376;1.133514600000126;2337
377;1.135750100000223;2337
378;1.1388637000000017;2336
379;1.1416878999998517;2337
380;1.144885300000169;2337
381;1.1475306000002092;2336
382;1.150837600000159;2337
383;1.1535554000001866;2336
384;1.1557849000000715;2337
385;1.1588354000004983;2337
386;1.1616554000001997;2336
387;1.16469860000052;2336
388;1.1675991000001886;2337
389;1.1708952999997564;2337
390;1.1738462000002983;2337
391;1.1769014000001334;2336
392;1.179895000000215;2336
393;1.182621800000561;2336
394;1.1858978000000207;2336
395;1.1885571000002528;2336
396;1.1918420000001788;2336
397;1.1944934000002831;2336
398;1.1967420000000857;2336
399;1.1998202000004312;2336
400;1.2015908000003037;2336
401;1.204830700000457;2336
402;1.2077814000003855;2336
403;1.2109446000004027;2336
404;1.213627600000109;2337
405;1.215840300000309;2337
406;1.218903699999828;2337
407;1.2216576000000714;2337
408;1.2247567000003983;2337
409;1.2279430999997203;2337
410;1.230555600000116;2337
411;1.233902300000409;2338
412;1.2365319000000454;2338
413;1.2386563999998543;2337
414;1.2417664000004152;2338
415;1.2448529000002964;2337
416;1.2475586000000476;2338
417;1.2495356999997966;2338
418;1.2514913000004526;2338
419;1.2538110000004963;2338
420;1.2565830000003189;2338
421;1.2598488000003272;2338
422;1.2625914000000193;2338
423;1.2647876999999426;2338
424;1.267837000000327;2338
425;1.2705714000003354;2338
426;1.2738884999998845;2338
427;1.2765153000000282;2338
428;1.2787035999999716;2338
429;1.2818880000004356;2338
430;1.284642100000383;2338
431;1.2878914000002624;2338
432;1.2905421000004935;2338
433;1.2927196999999069;2338
434;1.2946884000002683;2338
435;1.2974457999998776;2338
436;1.3006310999999187;2338
437;1.3035313000000315;2338
438;1.3058182000004308;2337
439;1.3087180000002263;2337
440;1.3118870999996943;2338
441;1.314695699999902;2338
442;1.3178318000000218;2338
443;1.3208820999998352;2337
444;1.3239681000004566;2337
445;1.3268575000001874;2337
446;1.3298452999997608;2337
447;1.332877699999699;2337
448;1.3358863000003112;2337
449;1.3386719999998604;2337
450;1.3429032000003644;2336
451;1.3457084000001487;2337
452;1.3488256999999066;2337
453;1.3514772999997149;2336
454;1.3538648000003377;2337
455;1.3568544999998267;2336
456;1.359692900000482;2337
457;1.3629140000002735;2337
458;1.3656731000000946;2337
459;1.3688375000001543;2337
460;1.3714969000002384;2337
461;1.3736971999996967;2337
462;1.3768458000004102;2337
463;1.3795669999999518;2337
464;1.381694200000311;2337
465;1.384802700000364;2337
466;1.387712100000499;2337
467;1.3906557999998768;2338
468;1.3936539000005723;2338
469;1.3956422000001112;2338
470;1.399176400000215;2338
471;1.4015924000004816;2338
472;1.403567600000315;2339
473;1.4065596000000369;2339
474;1.4087989999998172;2339
475;1.4117426000002524;2339
476;1.4148464999998396;2339
477;1.4177657000000181;2339
478;1.4205422000004546;2339
479;1.4238438000002134;2340
480;1.4265114999998332;2340
481;1.4287474000002476;2340
482;1.4317730000002484;2340
483;1.433560800000123;2340
484;1.4357580000005328;2340
485;1.438825199999883;2340
486;1.4418432000002213;2340
487;1.4448217999997723;2341
488;1.4475838999996995;2341
489;1.4497455999999147;2341
490;1.4528270000000703;2341
491;1.4558616000003894;2341
492;1.4588860000003478;2341
493;1.4618803000003027;2341
494;1.464876799999729;2342
495;1.4678860000003624;2342
496;1.4708926000002975;2342
497;1.4737813000001552;2342
498;1.4769216000004235;2342
499;1.4804346999999325;2342
500;1.4826253000001088;2342
501;1.4862696999998661;2342
502;1.490139999999883;2342
503;1.4941576000001078;2342
504;1.4981023000000278;2343
505;1.5018238000002384;2342
506;1.5049010000002454;2343
507;1.5084077999999863;2342
508;1.5117755000001125;2342
509;1.5156605000001946;2343
510;1.5188044000005902;2342
511;1.5214200000000346;2343
512;1.523806500000319;2343
513;1.5268342999997913;2343
514;1.5295145999998567;2343
515;1.5316981000005399;2343
516;1.5348478000005343;2343
517;1.5379486000001634;2343
518;1.5408391999999367;2343
519;1.543854900000042;2343
520;1.5467428000001746;2343
521;1.549684000000525;2343
522;1.5528837000001658;2343
523;1.5557729000001927;2343
524;1.558860199999799;2343
525;1.561831500000153;2344
526;1.5634860000000117;2344
527;1.5668296000003465;2344
528;1.5697021000005407;2344
529;1.5727316000002247;2344
530;1.5756594000004043;2344
531;1.578725399999712;2344
532;1.582262300000366;2344
533;1.5861682000004294;2345
534;1.588892599999781;2345
535;1.5917009000004327;2345
536;1.5948884999997972;2345
537;1.5977333999999246;2346
538;1.6008392000003369;2345
539;1.6036206999997376;2346
540;1.6067947999999888;2346
541;1.6099294000005102;2346
542;1.6126983000003747;2347
543;1.61473339999975;2347
544;1.617559799999981;2347
545;1.6198653000001286;2348
546;1.6227899000004982;2347
547;1.6255857000005562;2347
548;1.6288761000005252;2348
549;1.6315449000003355;2348
550;1.6348398000000088;2348
551;1.637604900000042;2348
552;1.6395179999999527;2348
553;1.641523899999811;2349
554;1.643491300000278;2349
555;1.6456026000005295;2349
556;1.64745000000039;2349
557;1.6494838999997228;2349
558;1.6515813000005437;2349
559;1.6535327999999936;2350
560;1.6555121999999756;2350
561;1.6576503000005687;2351
562;1.6596270999998524;2351
563;1.6626022999998895;2351
564;1.6646067000001494;2351
565;1.6665038000001005;2352
566;1.669636900000114;2352
567;1.6725532999998904;2352
568;1.6745178000001033;2352
569;1.676550700000007;2352
570;1.6784857000002376;2352
571;1.6805473000003985;2352
572;1.682528000000275;2352
573;1.6846315000002505;2352
574;1.6865305999999691;2352
575;1.6886051999999836;2353
576;1.6906010000002425;2353
577;1.6935984000001554;2353
578;1.6955994999998438;2354
579;1.697541700000329;2354
580;1.6996061999998346;2354
581;1.7016279999998005;2354
582;1.7036500000003798;2354
583;1.7056093000001056;2355
584;1.7075353000000177;2355
585;1.7095809000002191;2355
586;1.7115639000003284;2355
587;1.713499800000136;2355
588;1.7155892000000676;2355
589;1.717513499999768;2356
590;1.719520999999986;2356
591;1.7215279000001829;2356
592;1.7235317000004216;2356
593;1.7255647000001773;2356
594;1.7274505000004865;2356
595;1.7295810000005076;2356
596;1.7315003000003344;2357
597;1.7345130000003337;2357
598;1.7365004000002955;2357
599;1.7385087000002386;2358
600;1.7404986999999892;2358
601;1.7436950000001161;2359
602;1.74712720000025;2359
603;1.7499538000001849;2359
604;1.7528524999997899;2360
605;1.7558109000001423;2360
606;1.7588833999998315;2360
607;1.7616055999997116;2361
608;1.7646393000004537;2361
609;1.7674931999999899;2361
610;1.7699281000004703;2361
611;1.7728335000001607;2361
612;1.7746395000003758;2362
613;1.7766584999999395;2362
614;1.7798162999997658;2362
615;1.782845599999746;2362
616;1.785837299999912;2362
617;1.7886727000004612;2363
618;1.7918884000000617;2363
619;1.794557299999724;2364
620;1.7967679000003045;2364
621;1.7998575999999957;2364
622;1.8026553999998214;2365
623;1.8058418999999049;2365
624;1.808621199999834;2366
625;1.8118952000004356;2366
626;1.8149935999999798;2366
627;1.817906899999798;2367
628;1.8208411000005071;2367
629;1.8238552000002528;2367
630;1.8266614000003756;2368
631;1.8295286000002307;2368
632;1.8316898000002766;2369
633;1.8348149000003104;2369
634;1.8383801999998468;2369
635;1.8422270999999455;2370
636;1.8460707000003822;2370
637;1.8489467999997942;2370
638;1.8518193999998402;2371
639;1.854812600000514;2371
640;1.8564961000001858;2372
641;1.858735599999818;2372
642;1.8618384999999762;2373
643;1.8648388000001432;2373
644;1.867838600000141;2373
645;1.8705429999999978;2374
646;1.8735523000004832;2374
647;1.876610299999811;2374
648;1.8785171999998056;2375
649;1.8804760000002716;2375
650;1.8835541999997076;2375
651;1.8859419999998863;2376
652;1.8888660000002346;2376
653;1.8915611000002173;2376
654;1.8948958999999377;2377
655;1.8976830000001428;2377
656;1.9008650000005218;2377
657;1.9035769000001892;2378
658;1.9055804999998145;2378
659;1.9076176999997188;2378
660;1.9097578000000794;2379
661;1.912910799999736;2379
662;1.9157726000003095;2379
663;1.918780699999843;2380
664;1.921809100000246;2380
665;1.9246604999998453;2381
666;1.9278383999999278;2381
667;1.9308382999997775;2382
668;1.9339005000001634;2382
669;1.9369034999999712;2383
670;1.9396888999999646;2383
671;1.9428925000001982;2383
672;1.9456178000000364;2384
673;1.948895000000448;2384
674;1.9516732000001866;2385
675;1.9546485000000757;2385
676;1.9578552000002674;2386
677;1.960830199999691;2386
678;1.9634869000001345;2387
679;1.9656234000003678;2387
680;1.967646799999784;2387
681;1.9695934000001216;2388
682;1.9725619999999253;2388
683;1.974653500000386;2389
684;1.9768031000003248;2389
685;1.9795366999996986;2389
686;1.9816823000001023;2390
687;1.9848776999997426;2390
688;1.9879664999998568;2391
689;1.9907981000005748;2392
690;1.9936330000000453;2392
691;1.9967474000004586;2392
692;1.9996815000004062;2393
693;2.001640100000259;2393
694;2.0048585000004095;2394
695;2.0076595000000452;2394
696;2.0107778000001417;2394
697;2.01346999999987;2395
698;2.01585200000045;2395
699;2.018921699999737;2396
700;2.0216589999999997;2396
701;2.023687200000495;2397
702;2.0266271999998935;2397
703;2.028852700000243;2397
704;2.031844500000261;2398
705;2.034685300000092;2398
706;2.0378430000000662;2399
707;2.04068449999977;2400
708;2.043907400000535;2400
709;2.04669610000019;2400
710;2.048583100000542;2400
711;2.051818599999933;2401
712;2.054508899999746;2401
713;2.0578442000005452;2401
714;2.060508700000355;2402
715;2.0635277000001224;2402
716;2.066955400000552;2403
717;2.0698668000004545;2403
718;2.072846099999879;2403
