;time;amplitude
0;0.005006199999115779;2439
1;0.009794699999474688;2440
2;0.013826899999912712;2441
3;0.01777369999945222;2442
4;0.021768699998574448;2444
5;0.02563170000030368;2444
6;0.029961299998831237;2445
7;0.03375859999869135;2446
8;0.03786760000002687;2447
9;0.04179219999969064;2448
10;0.045536099998571444;2449
11;0.04888839999875927;2450
12;0.052907799999957206;2451
13;0.056958099999974365;2452
14;0.06096669999897131;2453
15;0.06488749999880383;2453
16;0.0689033999988169;2454
17;0.07293319999917003;2455
18;0.07700599999952829;2455
19;0.08098699999936798;2457
20;0.08495260000017879;2458
21;0.08899190000011004;2459
22;0.09407429999919259;2460
23;0.09789230000023963;2462
24;0.10192409999945085;2462
25;0.10602149999976973;2463
26;0.10944969999945897;2464
27;0.11285429999952612;2465
28;0.1167816999986826;2465
29;0.12096799999926588;2466
30;0.1244033999992098;2467
31;0.12730050000027404;2468
32;0.13190389999908803;2469
33;0.1358619999991788;2470
34;0.13995129999966593;2470
35;0.14391999999861582;2470
36;0.14787619999879098;2471
37;0.1518395999992208;2472
38;0.1556958000001032;2473
39;0.1598727999989933;2473
40;0.16388529999858292;2473
41;0.1678390999986732;2473
42;0.17197510000005423;2474
43;0.1755842999991728;2475
44;0.17995849999897473;2475
45;0.18394590000025346;2475
46;0.1873552999986714;2475
47;0.19069990000025427;2475
48;0.19343269999990298;2476
49;0.19677729999966687;2476
50;0.20076220000009926;2476
51;0.2043982999985019;2477
52;0.20734209999864106;2477
53;0.21001419999993232;2478
54;0.21216329999879235;2479
55;0.21526489999996556;2479
56;0.21904410000024654;2480
57;0.22116639999876497;2480
58;0.22301270000025397;2480
59;0.22511239999948884;2480
60;0.22703059999912512;2480
61;0.22901269999965734;2480
62;0.231185299999197;2481
63;0.2329671999996208;2481
64;0.2349218999988807;2482
65;0.23705059999883815;2482
66;0.2390479999994568;2482
67;0.24109099999986938;2483
68;0.24304709999887564;2483
69;0.24512340000001132;2483
70;0.2470592999998189;2483
71;0.24904629999946337;2483
72;0.2509210999996867;2483
73;0.2530979999992269;2483
74;0.25506659999882686;2484
75;0.25711690000025555;2484
76;0.2600029999994149;2484
77;0.2621480999987398;2485
78;0.26517389999935403;2485
79;0.26816319999852567;2485
80;0.27016980000007607;2485
81;0.27209529999890947;2485
82;0.2740686999986792;2485
83;0.2760701999995945;2484
84;0.2780176999985997;2485
85;0.2799959999993007;2485
86;0.28197829999953683;2485
87;0.28407139999944775;2485
88;0.2861221999992267;2485
89;0.2880427999989479;2485
90;0.2900623999994423;2485
91;0.2920787000002747;2485
92;0.29405140000017127;2485
93;0.29604359999939334;2484
94;0.2980201999998826;2485
95;0.2999768999998196;2485
96;0.30201429999942775;2485
97;0.3039480999996158;2485
98;0.3059522999992623;2485
99;0.3079649999999674;2485
100;0.31002189999890106;2485
101;0.31213469999966037;2485
102;0.31406649999917136;2484
103;0.3160007999995287;2484
104;0.3180006000002322;2484
105;0.32002899999861256;2484
106;0.32208369999898423;2484
107;0.32411189999947965;2484
108;0.32610639999984414;2484
109;0.3290769999985059;2484
110;0.33104269999967073;2483
111;0.33302349999939906;2483
112;0.3350795999995171;2483
113;0.33703809999860823;2483
114;0.33900699999867356;2483
115;0.3410721000000194;2482
116;0.34299279999868304;2482
117;0.34509040000011737;2482
118;0.3470545999989554;2481
119;0.3490330999993603;2481
120;0.35105399999883957;2481
121;0.35303819999899133;2481
122;0.35505019999982323;2481
123;0.356939199999033;2480
124;0.3590411999994103;2480
125;0.36099149999972724;2480
126;0.36304699999891454;2479
127;0.3650677999994514;2479
128;0.367026399999304;2479
129;0.3690854999986186;2479
130;0.37106479999965813;2479
131;0.37300519999917015;2478
132;0.3749767999997857;2478
133;0.376954499999556;2478
134;0.37896120000004885;2478
135;0.3810009999997419;2478
136;0.3829613999987487;2477
137;0.38502169999992475;2477
138;0.3870587000001251;2477
139;0.3901183999987552;2477
140;0.3919838999991043;2477
141;0.39403569999922183;2477
142;0.3959863999989466;2477
143;0.39792689999922004;2476
144;0.39995839999937743;2476
145;0.4020065999993676;2476
146;0.40394109999942884;2475
147;0.4059273000002577;2475
148;0.4079249999995227;2475
149;0.40989489999992657;2474
150;0.4119878000001336;2474
151;0.4140810999997484;2474
152;0.4160487999997713;2473
153;0.418030999999246;2473
154;0.42003789999944274;2473
155;0.4220423999995546;2473
156;0.4240669999999227;2473
157;0.4270328000002337;2472
158;0.42903409999962605;2472
159;0.4310728999989806;2472
160;0.433039399998961;2472
161;0.4351169999990816;2471
162;0.4380888999985473;2471
163;0.4400757000003068;2471
164;0.44305309999981546;2470
165;0.44499069999983476;2469
166;0.44706459999906656;2469
167;0.44906649999938963;2468
168;0.45107199999984005;2468
169;0.4530239999985497;2468
170;0.45502029999988736;2467
171;0.45704509999995935;2467
172;0.4590028999991773;2467
173;0.4610612999986188;2466
174;0.463023999998768;2465
175;0.4650125999996817;2465
176;0.46700959999907354;2465
177;0.46908219999932044;2464
178;0.47108729999854404;2464
179;0.4730855999987398;2463
180;0.47510959999999614;2463
181;0.47705449999921257;2463
182;0.47911219999878085;2463
183;0.4811294999999518;2463
184;0.4829833999992843;2462
185;0.4850697999991098;2462
186;0.48709729999973206;2461
187;0.48896249999961583;2461
188;0.49111269999957585;2460
189;0.49310139999943203;2460
190;0.49501989999953366;2459
191;0.49708129999999073;2458
192;0.49902149999979883;2458
193;0.5010482999987289;2457
194;0.5030681999996887;2457
195;0.5051250999986223;2456
196;0.5080887999993138;2456
197;0.5100843999989593;2456
198;0.5121363999987807;2455
199;0.5141070999998192;2455
200;0.5161122999998042;2454
201;0.5181241999998747;2454
202;0.5200961999998981;2454
203;0.522091900000305;2453
204;0.5240885000002891;2453
205;0.5261000999998942;2452
206;0.5281367999996291;2452
207;0.5301567999995314;2451
208;0.5320553999990807;2451
209;0.5340808999990259;2450
210;0.5375014000001102;2449
211;0.5406115999994654;2448
212;0.5434511999992537;2448
213;0.5463161999996373;2447
214;0.5493819000002986;2446
215;0.5524112999992212;2445
216;0.5553905999986455;2444
217;0.5584463999985019;2444
218;0.5611000999997486;2444
219;0.5633898999985831;2443
220;0.5664293999998335;2442
221;0.5693955999995524;2441
222;0.572275599999557;2441
223;0.5752655999986018;2440
224;0.5783627999990131;2439
225;0.5812661999989359;2438
226;0.5842625999994198;2437
227;0.5872855999987223;2436
228;0.5903424999996787;2435
229;0.593539100000271;2434
230;0.5964316999998118;2434
231;0.5994374999991123;2433
232;0.6024258999987069;2433
233;0.6054046999997809;2432
234;0.6084353999995074;2431
235;0.6110790000002453;2431
236;0.6144241999991209;2430
237;0.6173978999995597;2429
238;0.6204168999993271;2429
239;0.6234090999987529;2428
240;0.6262994999997318;2427
241;0.6293097999987367;2427
242;0.6323078999994323;2426
243;0.6354174999996758;2425
244;0.6383611999990535;2424
245;0.6413935999989917;2424
246;0.6441400999992766;2423
247;0.6473945999987336;2422
248;0.6503993999995146;2421
249;0.6533983999997872;2421
250;0.6563962999989599;2420
251;0.6603294999986247;2419
252;0.6633934999990743;2418
253;0.6663952999988396;2417
254;0.6694004000000859;2417
255;0.672403900000063;2415
256;0.675400099999024;2414
257;0.6784102999990864;2413
258;0.6813996999990195;2413
259;0.6844031000000541;2412
260;0.6872462999999698;2411
261;0.6904017999986536;2411
262;0.6933998999993491;2410
263;0.6963919999998325;2409
264;0.6993947999999364;2408
265;0.7023933999989822;2408
266;0.7051934999999503;2407
267;0.7084140999995725;2406
268;0.7113964999989548;2406
269;0.714401799999905;2405
270;0.7174029999987397;2405
271;0.7204572999999073;2404
272;0.7233990999993694;2403
273;0.7264113000001089;2403
274;0.7293996999997034;2402
275;0.7324033999993844;2401
276;0.7353899999998248;2401
277;0.7384012000002258;2400
278;0.7413966999993136;2399
279;0.7441799999996874;2398
280;0.7474017999993521;2398
281;0.7503974999999627;2397
282;0.7533970999993471;2397
283;0.7563978999987739;2396
284;0.7593928999995114;2395
285;0.7624031999985164;2395
286;0.7654003999996348;2394
287;0.7681702999998379;2393
288;0.7711385999991762;2392
289;0.7743941999997332;2392
290;0.7771369000001869;2391
291;0.7804293999997753;2391
292;0.7832289999987552;2390
293;0.786388699998497;2389
294;0.7893943999988551;2388
295;0.7923926999992545;2388
296;0.7954007999996975;2387
297;0.7984003999990819;2387
298;0.801406999999017;2386
299;0.8044076999995013;2385
300;0.8074053999989701;2385
301;0.8102846000001591;2384
302;0.8134007999997266;2384
303;0.816131999999925;2384
304;0.8192951000000903;2384
305;0.822291899999982;2383
306;0.8252912999996624;2383
307;0.8282944999991741;2382
308;0.8310836000000563;2382
309;0.8341784999993251;2382
310;0.8372945999999502;2382
311;0.8402893999991647;2382
312;0.8433119999990595;2381
313;0.8462369999997463;2381
314;0.8492999999998574;2380
315;0.8522873999991134;2380
316;0.8552816999999777;2379
317;0.8582857999990665;2379
318;0.8612604999998439;2379
319;0.8642805999988923;2379
320;0.8672885999985738;2379
321;0.870292800000243;2379
322;0.8732872000000498;2379
323;0.876301099999182;2380
324;0.8791454999991402;2379
325;0.8822930999995151;2379
326;0.8853010000002541;2379
327;0.888292999999976;2378
328;0.8912964999999531;2378
329;0.8940697999987606;2378
330;0.897298599998976;2378
331;0.900300100000095;2377
332;0.9032870999999432;2377
333;0.9062957999994978;2377
334;0.9092583000001468;2377
335;0.9122993999990285;2376
336;0.9152966999990895;2377
337;0.9182954999996582;2377
338;0.9212912000002689;2377
339;0.9242930000000342;2377
340;0.9271310999993148;2377
341;0.9302895999990142;2378
342;0.9332940999993298;2378
343;0.9362888999985444;2377
344;0.9392943999991985;2377
345;0.9422978999991756;2377
346;0.9452939999991941;2377
347;0.9482876000001852;2376
348;0.9512856999990618;2377
349;0.9543947000001936;2377
350;0.9571753999989596;2377
351;0.9602574999989884;2377
352;0.9633975999986433;2377
353;0.9663967999986198;2377
354;0.9694051999995281;2377
355;0.9724644999987504;2378
356;0.9753989000000729;2378
357;0.9784060000001773;2379
358;0.9813952999993489;2379
359;0.984393299999283;2380
360;0.9874018999998952;2380
361;0.9914036999998643;2380
362;0.9941045999985363;2380
363;0.9973972999996477;2380
364;1.000406600000133;2380
365;1.003404799999771;2381
366;1.0063953999997466;2381
367;1.009391899999173;2382
368;1.0124003000000812;2382
369;1.0154012000002695;2382
370;1.0183937000001606;2383
371;1.021234199999526;2383
372;1.024378299998716;2383
373;1.0270698999993328;2384
374;1.0303600999995979;2384
375;1.0333700999999564;2384
376;1.0363645999987057;2384
377;1.0391987999992125;2385
378;1.0422007999986818;2385
379;1.0453952999996545;2386
380;1.0484034000000975;2386
381;1.0514234000002034;2387
382;1.0543913999990764;2387
383;1.0574268000000302;2387
384;1.0612897999999404;2388
385;1.0644011999993381;2388
386;1.067421199999444;2389
387;1.070392499999798;2390
388;1.0734240000001591;2390
389;1.0761899999997695;2391
390;1.0794768999985536;2391
391;1.0823913999993238;2392
392;1.0852402999989863;2392
393;1.088688199999524;2393
394;1.0926655999992363;2393
395;1.0951433999998699;2394
396;1.0982403999987582;2395
397;1.101255300000048;2396
398;1.1042541999995592;2396
399;1.1072327999991103;2397
400;1.1100838000002113;2398
401;1.113287299998774;2398
402;1.116298499999175;2399
403;1.1192775999988953;2399
404;1.1222598999993352;2400
405;1.1252559999993537;2401
406;1.1281521000000794;2401
407;1.1318338999990374;2402
408;1.1357618999991246;2403
409;1.1397947999994358;2404
410;1.1438443999995798;2405
411;1.1478334000003088;2406
412;1.1516579999988608;2406
413;1.155669300000227;2407
414;1.1595865999988746;2408
415;1.1625948999990214;2409
416;1.1666993999988335;2410
417;1.1706083999997645;2410
418;1.17317919999914;2411
419;1.1763577000001533;2412
420;1.179417299999841;2413
421;1.1824225999989721;2414
422;1.1854206999996677;2414
423;1.188444299999901;2415
424;1.1912922999999864;2416
425;1.1940856000001077;2416
426;1.197234399998706;2417
427;1.2002276999992318;2418
428;1.203527399999075;2419
429;1.2077346999994916;2420
430;1.2116416999997455;2420
431;1.215906499999619;2421
432;1.2197190999995655;2422
433;1.2247434000000794;2424
434;1.229758800000127;2425
435;1.2337735000000976;2426
436;1.2378800999995292;2427
437;1.2419059999992896;2428
438;1.2456305999985489;2429
439;1.2484850000000733;2430
440;1.2515175999997155;2431
441;1.2543894999998884;2432
442;1.2575190999996266;2433
443;1.260290399999576;2434
444;1.263418599999568;2435
445;1.2665202999996836;2435
446;1.2693893999985448;2437
447;1.2725271999988763;2437
448;1.2755655999990267;2438
449;1.2784021999996185;2439
450;1.2815488999985973;2440
451;1.2845435999988695;2441
452;1.2875461999992694;2442
453;1.2905565999990358;2443
454;1.293563199998971;2443
455;1.2964116999992257;2444
456;1.3005517999990843;2445
457;1.3034278999984963;2446
458;1.3065330999997968;2447
459;1.3095459999985906;2448
460;1.312558599998738;2448
461;1.315287499999613;2450
462;1.318387299999813;2450
463;1.3215497999990475;2451
464;1.325545300000158;2451
465;1.3283805999999458;2452
466;1.3312984999993205;2452
467;1.3345224999993661;2452
468;1.3374238999986119;2453
469;1.3405674999994517;2453
470;1.3435555999985809;2454
471;1.3463680999993812;2454
472;1.349551799999972;2455
473;1.3525542999996105;2455
474;1.3555672000002232;2456
475;1.3595494000001054;2457
476;1.362307299999884;2458
477;1.3655503999998473;2458
478;1.3685527999987244;2459
479;1.3715536999989126;2459
480;1.3745533999990585;2460
481;1.377339499998925;2460
482;1.3805470999996032;2461
483;1.3845482999986416;2462
484;1.3875238000000536;2462
485;1.3905438000001595;2463
486;1.3942759999990813;2464
487;1.397308300000077;2464
488;1.400298999998995;2465
489;1.4034200999994937;2466
490;1.4075674999985495;2467
491;1.4102590999991662;2468
492;1.413524800000232;2468
493;1.4165290999990248;2469
494;1.419424199999412;2469
495;1.4235563000002003;2470
496;1.4265529999993305;2471
497;1.4295505999998568;2471
498;1.432549299999664;2472
499;1.4355512999991333;2472
500;1.4395515999985946;2473
501;1.4422942999990482;2474
502;1.4454007999993337;2475
503;1.4495640999994066;2476
504;1.4525487999999314;2477
505;1.456549200000154;2477
506;1.4602833999997529;2478
507;1.4635461999987456;2479
508;1.4675446999990527;2480
509;1.4705730999994557;2481
510;1.473552199999176;2481
511;1.4773300999986532;2483
512;1.4805509999987407;2483
513;1.483553199999733;2484
514;1.4873324000000139;2484
515;1.4905566999987059;2485
516;1.4935728999989806;2485
517;1.4964203999988968;2485
518;1.4995448999998189;2485
519;1.5025377000001754;2486
520;1.505556099999012;2486
521;1.5085426999994525;2486
522;1.5115703999999823;2486
523;1.5145416999985173;2487
524;1.5175552000000607;2486
525;1.52057109999987;2487
526;1.523557799999253;2486
527;1.5265464999993128;2486
528;1.5295600999997987;2486
529;1.5325593999987177;2486
530;1.5352026000000478;2485
531;1.5383101999996143;2485
532;1.5414686999993137;2485
533;1.544113500000094;2484
534;1.547441799999433;2484
535;1.5504423000002134;2484
536;1.5534747000001516;2484
537;1.5564383000000817;2484
538;1.5590379999994184;2483
539;1.562900400000217;2483
540;1.566726799999742;2484
541;1.570598099999188;2484
542;1.5747482999995555;2484
543;1.5772257999997237;2484
544;1.5806955999996717;2483
545;1.5834732999992411;2483
546;1.5864612999994279;2483
547;1.589463700000124;2483
548;1.5936709999987215;2483
549;1.5965018999995664;2483
550;1.599432999999408;2483
551;1.6024532999999792;2483
552;1.605465999999069;2483
553;1.6080739999997604;2483
554;1.6101036999989446;2483
555;1.6133309999986523;2483
556;1.6163283999994746;2483
557;1.6193165999993653;2482
558;1.6225216999991972;2482
559;1.6267484999989392;2482
560;1.6295853999999963;2481
561;1.6325243999999657;2481
562;1.6355282999993506;2481
563;1.6385207000002993;2480
564;1.6413580999997066;2480
565;1.644209399999454;2480
566;1.6474053000001732;2480
567;1.6504257999986294;2480
568;1.6534068000000843;2480
569;1.6564897999996901;2480
570;1.6594824999992852;2479
571;1.6621656999996048;2479
572;1.6654985999994096;2478
573;1.6684943999989628;2478
574;1.6714592999996967;2478
575;1.674450099999376;2477
576;1.677217299999029;2477
577;1.6803722999993624;2477
578;1.6834597999986727;2476
579;1.686444400000255;2476
580;1.6894457999987935;2475
581;1.6924502999991091;2475
582;1.6951598999985436;2474
583;1.698154899999281;2474
584;1.7001543999995192;2473
585;1.7023938999991515;2473
586;1.70577719999892;2473
587;1.7098092999985965;2472
588;1.7126642999992328;2472
589;1.7167164999991655;2471
590;1.7207275999990088;2471
591;1.7243822000000364;2469
592;1.727158399999098;2468
593;1.7306723999990936;2468
594;1.7347184999998717;2467
595;1.7387220000000525;2466
596;1.7416343999993842;2465
597;1.7442224999995233;2464
598;1.7474427999986801;2464
599;1.750422699999035;2463
600;1.7534185999993497;2462
601;1.7564497999992454;2462
602;1.7594472000000678;2462
603;1.762462599999708;2462
604;1.7654445999996824;2461
605;1.7684484999990673;2460
606;1.7710065999999642;2460
607;1.7734412999998312;2459
608;1.7764549999992596;2459
609;1.7794599999997445;2458
610;1.7824590999989596;2458
611;1.7854486999985966;2457
612;1.7890628999994078;2456
613;1.7911039999999048;2455
614;1.7929948000000877;2455
615;1.7950921999999991;2455
616;1.7981596999998146;2454
617;1.8011381999986043;2453
618;1.8031022999984998;2452
619;1.8050966999999218;2452
620;1.807086699998763;2452
621;1.8101069999993342;2451
622;1.812116099999912;2450
623;1.8141086999985419;2450
624;1.817102299999533;2450
625;1.819627999999284;2449
626;1.8237982999999076;2448
627;1.827315099999396;2448
628;1.830695900000137;2447
629;1.8344042999997328;2446
630;1.8371274000000994;2445
631;1.840671599999041;2444
632;1.8442692999997234;2443
633;1.847655899999154;2442
634;1.8501765999990312;2441
635;1.8537318999988202;2441
636;1.8577334000001429;2439
637;1.8616829000002326;2439
638;1.8657094999998662;2438
639;1.8697199999987788;2437
640;1.8737150999986625;2436
641;1.8772396999993362;2435
642;1.880758600000263;2434
643;1.883663599999636;2434
644;1.8866250999999465;2433
645;1.8896334999990358;2432
646;1.8924700999996276;2431
647;1.8954438000000664;2431
648;1.8994305999985954;2430
649;1.9024324000001798;2428
650;1.9054618999998638;2427
651;1.908443399999669;2427
652;1.9114485999998578;2426
653;1.9144570999997086;2425
654;1.9174679999996442;2425
655;1.9203133999999409;2424
656;1.9234430999986216;2423
657;1.9264411999993172;2422
658;1.9294520999992528;2422
659;1.9324501999999484;2421
660;1.9354563999986567;2420
661;1.9384472999990976;2419
662;1.9414526000000478;2418
663;1.9444597000001522;2417
664;1.9474497999999585;2417
665;1.9504464000001462;2416
666;1.9533121999993455;2415
667;1.956448899998577;2415
668;1.959314199999426;2414
669;1.9624504999992496;2413
670;1.965446599999268;2412
671;1.9684596999995847;2411
672;1.9714499000001524;2410
673;1.9744465999992826;2410
674;1.977112099999431;2409
675;1.980452099998729;2409
676;1.98345689999951;2408
677;1.9864492999986396;2407
678;1.9894525999989128;2406
679;1.9924550999985513;2405
680;1.9954601999997976;2405
681;1.9984525999989273;2404
682;2.0014620999991166;2403
683;2.0044414999993023;2402
684;2.0073076999997284;2401
685;2.0100760999994236;2401
686;2.01341709999906;2400
687;2.016408699999374;2400
688;2.0194523999998637;2399
689;2.022194799999852;2398
690;2.0253443000001425;2397
691;2.0281392999986565;2396
692;2.0311509999992268;2396
693;2.034147299998949;2395
694;2.037159800000154;2395
695;2.0401898000000074;2394
696;2.043234599999778;2394
697;2.045424099998854;2393
698;2.048410599998533;2392
699;2.0514339999990625;2392
700;2.0543935999994574;2391
701;2.0574228999994375;2391
702;2.060090599999967;2390
703;2.063390100000106;2390
704;2.0664194999990286;2389
705;2.0694401000000653;2389
706;2.0724651999989874;2389
707;2.0752260999997816;2389
708;2.078460199998517;2389
709;2.0814706000001024;2388
710;2.0844423999988066;2388
711;2.0874062000002596;2388
712;2.0905612999995355;2387
713;2.093340499999613;2386
714;2.0964465999986714;2386
715;2.0994106999987707;2386
716;2.102440699998624;2385
