;time;amplitude
0;0.004588300000250456;2429
1;0.008983200001239311;2427
2;0.014290700000856305;2427
3;0.019234100000176113;2426
4;0.024880300001314026;2426
5;0.030084900001384085;2425
6;0.035260200000266195;2424
7;0.0401746000006824;2424
8;0.04512160000012955;2423
9;0.05013210000106483;2422
10;0.054572799999732524;2421
11;0.05921740000121645;2421
12;0.06408620000001974;2420
13;0.06857430000127351;2420
14;0.07246169999962149;2419
15;0.07702450000033423;2418
16;0.08199919999970007;2418
17;0.08658260000083828;2417
18;0.09048950000033074;2416
19;0.09503800000129559;2415
20;0.1000026000001526;2414
21;0.10444840000127442;2413
22;0.10903320000034;2413
23;0.11385450000125275;2412
24;0.11881929999981367;2411
25;0.12230410000120173;2410
26;0.12539280000055442;2409
27;0.12971240000115358;2409
28;0.13369860000057088;2408
29;0.13747160000093572;2408
30;0.14182110000001558;2407
31;0.14575560000048426;2406
32;0.14975410000079137;2405
33;0.15338300000075833;2405
34;0.1576775000012276;2404
35;0.16169989999980316;2404
36;0.16577040000083798;2403
37;0.16937810000126774;2402
38;0.17266940000081377;2402
39;0.17670490000091377;2402
40;0.18075520000093093;2401
41;0.18474030000106723;2401
42;0.18879680000100052;2401
43;0.1927293999997346;2401
44;0.19674420000046666;2400
45;0.20079140000052575;2400
46;0.20473260000107985;2399
47;0.20871420000003127;2399
48;0.2127066000011837;2399
49;0.2167172000008577;2398
50;0.2201985000010609;2398
51;0.22477550000076008;2398
52;0.22872770000140008;2397
53;0.23289140000088082;2397
54;0.2362289000011515;2397
55;0.23975930000051449;2397
56;0.243740699999762;2397
57;0.24773650000133784;2397
58;0.25174710000101186;2397
59;0.25573830000030284;2397
60;0.2597812000003614;2397
61;0.2637903000013466;2397
62;0.267216100000951;2397
63;0.2701710000001185;2397
64;0.2743902000001981;2397
65;0.2784805999999662;2397
66;0.28161680000084743;2397
67;0.2854047000000719;2397
68;0.2884897000003548;2398
69;0.29254390000096464;2398
70;0.29649520000020857;2397
71;0.300553500001115;2398
72;0.3043940000006842;2398
73;0.3087751000002754;2398
74;0.31273010000040813;2399
75;0.3167376000001241;2399
76;0.32133280000016384;2399
77;0.3257078000006004;2399
78;0.3296921000001021;2399
79;0.33370600000125705;2400
80;0.33748500000001513;2400
81;0.3417038000006869;2400
82;0.3456567000012001;2400
83;0.3496872000014264;2400
84;0.3533184000007168;2400
85;0.3567041000005702;2400
86;0.3607681000012235;2401
87;0.3647424000009778;2401
88;0.36877220000133093;2401
89;0.3726869000001898;2402
90;0.3766929000012169;2402
91;0.38075690000005125;2403
92;0.38479410000036296;2403
93;0.38874870000108785;2403
94;0.3927316000008432;2404
95;0.3967131999997946;2404
96;0.40070960000048217;2404
97;0.4047288000001572;2405
98;0.40874390000135463;2405
99;0.41275409999980184;2406
100;0.41672530000141705;2406
101;0.4202134000006481;2407
102;0.42366340000080527;2408
103;0.42766800000026706;2409
104;0.4314604999999574;2409
105;0.43577929999992193;2410
106;0.439732400000139;2410
107;0.44370600000002014;2411
108;0.4477065999999468;2411
109;0.45169610000084504;2412
110;0.4544703000010486;2412
111;0.4576511000013852;2413
112;0.46134100000017497;2414
113;0.46472429999994347;2414
114;0.46876309999970545;2415
115;0.47271360000013374;2416
116;0.4765714000004664;2417
117;0.48071660000096017;2417
118;0.48470090000046184;2418
119;0.4874892000007094;2418
120;0.49173960000007355;2419
121;0.4957384999997885;2419
122;0.4997824000001856;2420
123;0.5032738999998401;2420
124;0.506745000000592;2420
125;0.5107557999999699;2421
126;0.5147847999996884;2422
127;0.518730300000243;2422
128;0.5227282000014384;2423
129;0.5267139000006864;2424
130;0.5305922999996255;2425
131;0.5347314000009646;2425
132;0.5376386999996612;2425
133;0.5412857000010263;2425
134;0.5457392999996955;2426
135;0.5496983000011824;2427
136;0.5532062000002043;2427
137;0.5577405000003637;2427
138;0.561740799999825;2429
139;0.5657072000012704;2429
140;0.5694328999998106;2430
141;0.5726599000008719;2430
142;0.5767152999997052;2431
143;0.5807578000003559;2432
144;0.5848100000002887;2433
145;0.5887970000003406;2434
146;0.5927195000003849;2435
147;0.596615300000849;2435
148;0.6008015000006708;2436
149;0.6047766000010597;2436
150;0.6087176000000909;2436
151;0.6126936000000569;2437
152;0.6167698000008386;2438
153;0.6201785000012023;2438
154;0.6237481000007392;2438
155;0.627730000000156;2439
156;0.6317205000013928;2440
157;0.6355394000001979;2440
158;0.6386448000012024;2441
159;0.6427034000007552;2441
160;0.646514500000194;2441
161;0.6502166999998735;2441
162;0.6531787000003533;2442
163;0.6566761000012775;2442
164;0.6607237000007444;2443
165;0.6647893999997905;2443
166;0.66840940000111;2444
167;0.6716140999997151;2444
168;0.6746161000010034;2445
169;0.6776194000012765;2446
170;0.6806503000007069;2446
171;0.6847053000001324;2446
172;0.6876462000000174;2447
173;0.6916934000000765;2447
174;0.6957084000005125;2448
175;0.6998104000012972;2448
176;0.7032594000011159;2449
177;0.7066411000014341;2450
178;0.7106882000007317;2450
179;0.7147517000012158;2451
180;0.7188156000011077;2451
181;0.722698900000978;2452
182;0.7266864000011992;2452
183;0.730756000000838;2452
184;0.734790399999838;2453
185;0.7388081999997667;2454
186;0.7427379000000656;2454
187;0.7465872000011586;2455
188;0.7502992000008817;2455
189;0.753238400000555;2455
190;0.7577192999997351;2455
191;0.7616968000002089;2456
192;0.7652198000014323;2456
193;0.768315999999686;2456
194;0.7716572999997879;2456
195;0.7755881000011868;2456
196;0.779717299999902;2456
197;0.7837080000008427;2456
198;0.7876360000009299;2457
199;0.791712500000358;2457
200;0.7956532000007428;2456
201;0.7982025000001158;2457
202;0.8015363000013167;2457
203;0.8043085000008432;2457
204;0.8075184000008448;2456
205;0.8115287000000535;2455
206;0.8155285000011645;2456
207;0.818542000000889;2456
208;0.8214851000011549;2456
209;0.8244500000000698;2456
210;0.8274446000013995;2456
211;0.8303563999998005;2457
212;0.8333209000011266;2457
213;0.8362441000008403;2456
214;0.8392682000012428;2456
215;0.8422719000009238;2456
216;0.8453114000003552;2456
217;0.8482837000010477;2457
218;0.8512776000006852;2457
219;0.854258999999729;2456
220;0.8572382000002108;2456
221;0.8602731999999378;2456
222;0.8632293000009668;2456
223;0.866274699999849;2456
224;0.8701821000013297;2455
225;0.8731253000005381;2455
226;0.8761457000000519;2454
227;0.8795676000008825;2454
228;0.8835350000008475;2454
229;0.8874520000008488;2454
230;0.8905057000010856;2453
231;0.894301300000734;2453
232;0.8974349000000075;2452
233;0.9004175000009127;2452
234;0.9032163000010769;2452
235;0.9064933999998175;2452
236;0.9094918999999209;2452
237;0.9135819000002812;2451
238;0.9165656000004674;2451
239;0.9202646000012464;2451
240;0.9235540000008768;2450
241;0.9276258000008966;2450
242;0.9316058000003977;2449
243;0.9358597000009468;2449
244;0.939693600001192;2449
245;0.9436666000001424;2449
246;0.9474420000005921;2449
247;0.9516997000009724;2448
248;0.9546343000001798;2448
249;0.9586882000003243;2447
250;0.9622815000002447;2447
251;0.9666855000014039;2446
252;0.9702573000013217;2446
253;0.9746888999998191;2445
254;0.9781671000000642;2445
255;0.9816724000011163;2445
256;0.9856399000000238;2444
257;0.9897271000008914;2444
258;0.9933027000006405;2443
259;0.9976868000012473;2443
260;1.0016742999996495;2442
261;1.0046222000000853;2441
262;1.0086286000005202;2441
263;1.012684100000115;2440
264;1.0166699000001245;2440
265;1.0202329000003374;2439
266;1.0245941000011953;2439
267;1.0286704000009195;2439
268;1.0326488000009704;2438
269;1.0363168000003498;2438
270;1.039625100000194;2438
271;1.0437450999997964;2437
272;1.0476771000012377;2436
273;1.0516630000001896;2436
274;1.0546078000006673;2435
275;1.0586968999996316;2435
276;1.0626769999998942;2434
277;1.0666758000006666;2434
278;1.0702971999999136;2433
279;1.0736995000006573;2433
280;1.0777708000005077;2433
281;1.0817932999998447;2432
282;1.0858605000012176;2431
283;1.0906331000005594;2431
284;1.0947016999998596;2430
285;1.0987316999999166;2429
286;1.1028120999999373;2429
287;1.1067148000001907;2428
288;1.1106669000000693;2427
289;1.114725700001145;2426
290;1.1188528000002407;2426
291;1.1226896999996825;2425
292;1.1266641000001982;2425
293;1.1307257000007667;2424
294;1.1347949000009976;2423
295;1.1387212999998155;2423
296;1.1426655000013852;2422
297;1.14671460000136;2421
298;1.1507755000002362;2420
299;1.154182000000219;2420
300;1.1576404000006733;2420
301;1.1616064000008919;2419
302;1.1656198000000586;2418
303;1.1693066000007093;2418
304;1.1726505000006;2417
305;1.1766509000008227;2417
306;1.1807165999998688;2417
307;1.1847157000011066;2416
308;1.1888137000005372;2415
309;1.192734800000835;2414
310;1.1966809000005014;2413
311;1.200603900000715;2412
312;1.2046925000013289;2412
313;1.2086667000003217;2411
314;1.2126643000010517;2411
315;1.2163166000009369;2410
316;1.2202400000005582;2410
317;1.2248020000006363;2409
318;1.2286710000007588;2408
319;1.2326263000013569;2408
320;1.2363144000009925;2408
321;1.2396308000006684;2407
322;1.2436880000004749;2407
323;1.2476741999998922;2406
324;1.2517719000006764;2406
325;1.2557124000013573;2405
326;1.2596888000007311;2405
327;1.2636161999998876;2405
328;1.2677777000008064;2404
329;1.2702172000008431;2404
330;1.2737570999997843;2404
331;1.2776977000012266;2404
332;1.280608500001108;2403
333;1.28480110000055;2403
334;1.2888032000009844;2403
335;1.2927471000002697;2403
336;1.296204600001147;2403
337;1.2991884000002756;2403
338;1.302241800000047;2402
339;1.3051575000008597;2402
340;1.3081590000001597;2402
341;1.3111695000006875;2402
342;1.314123300000574;2402
343;1.317636499999935;2402
344;1.3216597000009642;2402
345;1.3256512000007206;2401
346;1.3281396000002132;2401
347;1.3315172000002349;2401
348;1.334398200000578;2401
349;1.3371175000011135;2401
350;1.3403174000013678;2400
351;1.343536700000186;2400
352;1.3474136000004364;2400
353;1.3505344000004698;2400
354;1.3543164000002434;2400
355;1.357433299999684;2400
356;1.3604279999999562;2400
357;1.3634844999996858;2400
358;1.3664289000007557;2400
359;1.3691342000001896;2400
360;1.3723466000010376;2399
361;1.3753488000002108;2400
362;1.3783460000013292;2399
363;1.3813710000013089;2400
364;1.3843689000004815;2400
365;1.3873710000007122;2400
366;1.3903683000007732;2400
367;1.3933639000006224;2400
368;1.396366000000853;2400
369;1.3993709000005765;2400
370;1.4020655000003899;2400
371;1.4053627000012057;2400
372;1.408364500000971;2400
373;1.4113690000012866;2400
374;1.414364400001432;2400
375;1.4173253999997542;2401
376;1.4203710000001593;2400
377;1.423371800001405;2400
378;1.4263447000012093;2401
379;1.4293539000009332;2401
380;1.4321693000001687;2401
381;1.4353394999998272;2401
382;1.4383682000006957;2401
383;1.4413727999999537;2401
384;1.4443664999998873;2401
385;1.4473324000009598;2401
386;1.4503640000002633;2401
387;1.4533234000009543;2402
388;1.4563390000002983;2402
389;1.4593487000001915;2402
390;1.462346600001183;2403
391;1.4651090000006661;2403
392;1.4683514999996987;2402
393;1.4713425999998435;2403
394;1.474340000000666;2403
395;1.4773416000007273;2403
396;1.4803179999998974;2404
397;1.483353999999963;2405
398;1.4860834999999497;2405
399;1.4893468999998731;2406
400;1.4923102000011568;2406
401;1.495346800000334;2407
402;1.4983377999997174;2407
403;1.5013441000010062;2408
404;1.504339200000686;2408
405;1.5073389999997744;2408
406;1.5103467000008095;2409
407;1.5133388000012928;2409
408;1.5163370000009309;2409
409;1.5190488000007463;2409
410;1.5223401000002923;2410
411;1.5253416000014113;2410
412;1.5280031000002054;2411
413;1.530110200001218;2411
414;1.5336882000010519;2410
415;1.5376696000002994;2411
416;1.5416342999997141;2412
417;1.5456401000010374;2413
418;1.549637400001302;2413
419;1.553165600000284;2414
420;1.5566042000009475;2414
421;1.560655700001007;2414
422;1.5646618999999191;2414
423;1.568694499999765;2415
424;1.5715619000002334;2416
425;1.5752786000011838;2416
426;1.5785785999996733;2417
427;1.5826618999999482;2417
428;1.5861858999996912;2418
429;1.5896179000010306;2418
430;1.5926006000008783;2419
431;1.596657199999754;2420
432;1.6006341000011162;2421
433;1.604633000000831;2421
434;1.6075477000013052;2422
435;1.6116500000007363;2422
436;1.6156558000002406;2423
437;1.619173300001421;2424
438;1.6226161000013235;2425
439;1.6266594999997324;2425
440;1.6306710000008025;2425
441;1.6346706000003906;2426
442;1.6375490999998874;2427
443;1.6400847000004433;2427
444;1.643072500000926;2428
445;1.646059200000309;2428
446;1.6480836999999156;2428
447;1.6500651000005746;2429
448;1.6519110999997793;2430
449;1.6541065000001254;2430
450;1.6559202000007645;2430
451;1.6580604999999196;2430
452;1.6599786000006134;2431
453;1.6620708000009472;2431
454;1.6640564000008453;2432
455;1.6659642000013264;2432
456;1.6679870000007213;2432
457;1.6699451000004046;2433
458;1.6719322000008106;2433
459;1.6739390000002459;2434
460;1.675912500000777;2434
461;1.6778752999998687;2435
462;1.680113500000516;2435
463;1.6820192000013776;2435
464;1.6840632000003097;2435
465;1.6860640000013518;2436
466;1.6891501000009157;2436
467;1.6927551000007952;2436
468;1.6965430000000197;2437
469;1.7007634000001417;2437
470;1.7046362000000954;2438
471;1.7086376000006567;2438
472;1.7126349000009213;2438
473;1.7166597000014008;2439
474;1.7206132999999681;2439
475;1.7246506999999838;2439
476;1.72863690000122;2439
477;1.7326916000001802;2440
478;1.7361825999996654;2440
479;1.7396017000010033;2441
480;1.7436318000000028;2441
481;1.7476363000005222;2441
482;1.7511635000009846;2441
483;1.754348200000095;2442
484;1.7573413000009168;2443
485;1.760343699999794;2443
486;1.7631916000009369;2444
487;1.7661640000005718;2444
488;1.769067900000664;2445
489;1.772359000000506;2445
490;1.7753767000012886;2446
491;1.7783746000004612;2446
492;1.78103800000099;2447
493;1.7832619000000705;2447
494;1.7860188000013295;2447
495;1.7896925000004558;2448
496;1.7941150000006019;2449
497;1.7991730000012467;2449
498;1.8036983000001783;2450
499;1.8081179000000702;2450
500;1.8124475000004168;2451
501;1.817169100000683;2451
502;1.8216357000001153;2453
503;1.8256658000009338;2453
504;1.8297992999996495;2453
505;1.8335236000002624;2454
506;1.836230599999908;2454
507;1.8393854000005376;2454
508;1.8438638000006904;2454
509;1.8478542000011657;2454
510;1.8519102000009298;2455
511;1.8558644000004278;2454
512;1.8591973000002326;2455
513;1.8634383000007801;2455
514;1.8678443999997398;2455
515;1.8702868000000308;2456
516;1.8737837000007858;2456
517;1.8778701000010187;2456
518;1.8815730000005715;2456
519;1.884323600001153;2457
520;1.8876221000009537;2457
521;1.8916277999996964;2457
522;1.8956121999999596;2456
523;1.899661000001288;2456
524;1.9032665000013367;2457
525;1.907816000000821;2456
526;1.9118553999996948;2456
527;1.915848000000551;2456
528;1.919282500000918;2456
529;1.92230120000022;2456
530;1.925308900001255;2457
531;1.9282753000006778;2457
532;1.931274000000485;2457
533;1.9342796000000817;2457
534;1.9372249000007287;2456
535;1.940682000000379;2456
536;1.9447006999998848;2456
537;1.9487621999996918;2456
538;1.9524259000008897;2456
539;1.9556580999997095;2455
540;1.9583546000012575;2455
541;1.9616523000004236;2455
542;1.9657079000007798;2456
543;1.9692229000011139;2456
544;1.9726768000000448;2455
545;1.9766565000008995;2455
546;1.9806418000007397;2455
547;1.984652900000583;2455
548;1.9876159000014013;2455
549;1.9904542000003858;2455
550;1.9934843000010005;2454
551;1.9966923000010866;2454
552;1.9994846999998117;2453
553;2.003282300000137;2453
554;2.007794200000717;2453
555;2.0117295000000013;2453
556;2.0157994000001054;2452
557;2.0192333000013605;2452
558;2.022413599999709;2452
559;2.0267985000009503;2451
560;2.030642600000647;2450
561;2.0346714000006614;2450
562;2.037645899999916;2449
563;2.0416837000011583;2449
564;2.0453519000002416;2448
565;2.049718899999789;2448
566;2.053388600001199;2447
567;2.056509600000936;2447
568;2.059629800000039;2446
569;2.062459900000249;2446
570;2.0655012000006536;2446
571;2.0693112000008114;2445
572;2.073702700001377;2445
573;2.077202300000863;2444
574;2.0806872000011936;2444
575;2.084706700001334;2444
576;2.0874644000014086;2443
577;2.090495100001135;2443
578;2.093629900000451;2442
579;2.0976995000000898;2442
580;2.10169230000065;2442
581;2.1045148000011977;2441
582;2.107709600000817;2441
583;2.110500500000853;2441
584;2.114701500000592;2440
585;2.118703000000096;2440
586;2.12271740000142;2439
587;2.1267137000013463;2439
588;2.1307797999998;2438
589;2.1347270000005665;2438
590;2.1373093000001973;2437
591;2.1418057000009867;2437
592;2.145658999999796;2436
593;2.1484502000002976;2435
594;2.1514812000004895;2435
595;2.154647400000613;2434
596;2.158487500000774;2434
597;2.162388100001408;2433
598;2.1653707000004943;2433
599;2.1683227000012266;2432
600;2.171558100000766;2432
601;2.1755864000006113;2431
602;2.179380499999752;2431
603;2.183451300001252;2430
604;2.1872710999996343;2429
605;2.1905760999998165;2428
606;2.1946275000009337;2428
607;2.1975524999998015;2427
608;2.20130650000101;2426
609;2.204540200000338;2425
610;2.208591800001159;2425
611;2.212579099999857;2424
612;2.2166023999998288;2423
613;2.2205071000007592;2423
614;2.2245806000009907;2422
615;2.228578500000367;2422
616;2.232590800000253;2421
617;2.2362056000001758;2420
618;2.2394951000005676;2420
619;2.242511899999954;2420
620;2.2465964000002714;2419
621;2.24956100000054;2419
622;2.2532962000004773;2418
623;2.2576509000009537;2417
624;2.2616553000007116;2417
625;2.265607799999998;2417
626;2.2693467999997665;2416
627;2.273576800000228;2416
628;2.2775837000008323;2415
629;2.2816323000006378;2414
630;2.2845790999999736;2414
631;2.2875292999997328;2413
632;2.2916522000014083;2413
633;2.2945870000003197;2412
634;2.298446900000272;2412
635;2.3014722999996593;2411
636;2.304667000000336;2411
637;2.30742790000113;2411
638;2.3103860000010172;2410
639;2.3134004000003188;2409
640;2.3163836000003357;2409
641;2.3191389000003255;2409
642;2.3223925000002055;2408
643;2.3253789999998844;2407
644;2.3283874000007927;2407
645;2.3314016000003903;2407
646;2.3343882000008307;2406
647;2.3373828000003414;2406
648;2.340377399999852;2405
649;2.3431789000005665;2405
650;2.3463745000008203;2404
651;2.3493785000009666;2404
652;2.352114100000108;2404
653;2.35539240000071;2404
654;2.358327600000848;2403
655;2.361372700001084;2403
656;2.364375099999961;2403
657;2.367378300001292;2403
658;2.370386900000085;2402
659;2.3733799000001454;2402
660;2.3761842000003526;2402
661;2.3793776000002254;2402
662;2.382385000000795;2402
663;2.3853491000008944;2402
664;2.3883822999996482;2401
665;2.3914340999999695;2401
666;2.3944098000010854;2401
667;2.397392700000637;2401
668;2.4003898999999365;2401
669;2.4031614000014088;2401
670;2.40619340000012;2401
671;2.409194600000774;2401
672;2.4122000000006665;2401
673;2.4152045999999245;2400
674;2.418204400000832;2400
675;2.4213897999998153;2400
676;2.424398700000893;2400
677;2.427390800001376;2400
678;2.430389200000718;2400
679;2.4333440999998857;2400
680;2.4361254000014014;2400
681;2.4393804000010277;2400
682;2.4423772000009194;2399
683;2.44537930000115;2399
684;2.448384100000112;2399
685;2.4513932000008936;2399
686;2.4543845000007423;2399
687;2.457374900001014;2399
688;2.4603822999997647;2399
689;2.463382800000545;2399
690;2.4663775000008172;2399
691;2.469101500000761;2399
692;2.4723878000004333;2399
693;2.475374900001043;2399
694;2.47838320000119;2399
695;2.481394200000068;2399
696;2.48437980000017;2399
697;2.4874028000012913;2399
698;2.490377600001011;2400
699;2.4933724000002258;2400
700;2.4963958999996976;2400
701;2.4993704999997135;2400
702;2.5021465000008902;2400
703;2.505373600000894;2400
704;2.5083774000013364;2400
705;2.5113844999996218;2400
706;2.5140399000010802;2401
707;2.5173809999996593;2401
708;2.5203834000003553;2401
709;2.5233722000011767;2401
710;2.5263844000000972;2401
711;2.5293805000001157;2401
712;2.5321918000008736;2402
713;2.535072200000286;2402
714;2.5383552000002965;2402
715;2.541358399999808;2403
716;2.5443563000008;2403
717;2.547386500000357;2403
718;2.550378100000671;2403
719;2.5533828000006906;2403
