;time;amplitude
0;0.003265100000135135;4315
1;0.007299799999600509;4315
2;0.011343600001055165;4314
3;0.014974899999288027;4312
4;0.018096499999955995;4309
5;0.021292499999617576;4305
6;0.02531289999933506;4299
7;0.029343100000915;4292
8;0.03332849999969767;4284
9;0.035815499999444;4276
10;0.03929910000078962;4269
11;0.04335659999924246;4260
12;0.047495599999820115;4250
13;0.051340100000743405;4238
14;0.05535050000071351;4225
15;0.05935520000093675;4212
16;0.06336600000031467;4200
17;0.06610309999996389;4188
18;0.07035340000038559;4177
19;0.07433270000001357;4164
20;0.07834800000091491;4150
21;0.08186729999943054;4135
22;0.08501090000027034;4125
23;0.08902649999981804;4110
24;0.09233440000025439;4097
25;0.095962999999756;4084
26;0.09988999999950465;4069
27;0.10397390000071027;4054
28;0.10797140000067884;4038
29;0.11092280000048049;4023
30;0.11500320000050124;4010
31;0.11909170000035374;3994
32;0.12203229999977339;3977
33;0.12604610000016692;3964
34;0.12878730000011274;3948
35;0.13177150000046822;3935
36;0.13480660000095668;3922
37;0.13784499999928812;3910
38;0.14077259999976377;3896
39;0.14378000000033353;3883
40;0.14688899999964633;3868
41;0.14978270000028715;3854
42;0.15277330000026268;3841
43;0.1555779000009352;3826
44;0.15746559999934107;3815
45;0.15963120000014897;3807
46;0.16162749999966763;3796
47;0.16472720000092522;3782
48;0.16823380000096222;3769
49;0.17224200000055134;3750
50;0.17624160000013944;3731
51;0.1798822000000655;3710
52;0.18327429999953893;3694
53;0.1872722000007343;3674
54;0.19127739999930782;3653
55;0.19527500000003783;3632
56;0.19765379999989818;3614
57;0.20120499999939057;3599
58;0.20526190000055067;3580
59;0.20927660000052128;3558
60;0.21276940000097966;3535
61;0.215973500000473;3519
62;0.21900490000007267;3501
63;0.22195819999978994;3483
64;0.22498230000019248;3467
65;0.2279828999999154;3451
66;0.2307844999995723;3433
67;0.23401060000105645;3419
68;0.23701009999967937;3400
69;0.23997659999986354;3383
70;0.24288820000037958;3366
71;0.24598530000002938;3349
72;0.24898170000051323;3330
73;0.2519634000000224;3313
74;0.2549954999994952;3296
75;0.2579777999999351;3279
76;0.26082490000044345;3261
77;0.263788399999612;3245
78;0.2668520000006538;3228
79;0.2698608000009699;3208
80;0.2727744999992865;3190
81;0.2758601000005001;3172
82;0.2789907000005769;3155
83;0.2818843000004563;3135
84;0.2849893000002339;3118
85;0.28798830000050657;3098
86;0.2909849000006943;3081
87;0.29398140000012063;3062
88;0.2968681000002107;3043
89;0.29961010000079114;3027
90;0.3029389000002993;3007
91;0.3059623000008287;2987
92;0.3089204999996582;2968
93;0.3119962000000669;2950
94;0.3146366000000853;2932
95;0.31798370000069553;2913
96;0.32098860000041896;2892
97;0.3239945000004809;2874
98;0.3269894999993994;2854
99;0.32999050000034913;2836
100;0.33298500000091735;2818
101;0.33598370000072464;2797
102;0.3389982999997301;2778
103;0.34198490000017046;2759
104;0.3449951000002329;2740
105;0.3476252000000386;2721
106;0.35098049999942305;2703
107;0.3539892000007967;2681
108;0.35699690000001283;2661
109;0.359566499999346;2643
110;0.36297990000093705;2626
111;0.36599000000023807;2607
112;0.3689840999995795;2587
113;0.37199429999964195;2567
114;0.37497050000092713;2548
115;0.3779892000002292;2528
116;0.38076120000005176;2507
117;0.3839891000006901;2492
118;0.3869845000008354;2470
119;0.38998519999950076;2450
120;0.39298170000074606;2433
121;0.3959850999999617;2414
122;0.39900260000104026;2394
123;0.40194660000088334;2376
124;0.40498400000069523;2356
125;0.40798589999940305;2338
126;0.41098450000026787;2318
127;0.41399420000016107;2299
128;0.4169880000008561;2280
129;0.4200006000010035;2261
130;0.42274519999955373;2240
131;0.42598370000087016;2226
132;0.42897810000067693;2205
133;0.431983800001035;2186
134;0.43498279999948863;2166
135;0.4379633000007743;2147
136;0.44099439999990864;2129
137;0.4439992000006896;2111
138;0.44694650000019465;2092
139;0.44997030000013183;2074
140;0.45296520000010787;2055
141;0.4559712000009313;2038
142;0.45897300000069663;2017
143;0.46197270000084245;1999
144;0.464821600000505;1980
145;0.4679768000005424;1962
146;0.4709719000002224;1941
147;0.4739683999996487;1924
148;0.4769728999999643;1905
149;0.47997469999972964;1886
150;0.4829728000004252;1869
151;0.485661099999561;1849
152;0.4889738000001671;1832
153;0.4919860999998491;1812
154;0.4949835000006715;1794
155;0.49763460000031046;1776
156;0.5009857000004558;1759
157;0.5039710000000923;1737
158;0.5069758000008733;1720
159;0.5099807000005967;1703
160;0.5129682999995566;1685
161;0.515984199999366;1668
162;0.5189561000006506;1650
163;0.5219777000002068;1631
164;0.5249731000003521;1614
165;0.5279876000004151;1597
166;0.5307004000005691;1577
167;0.5339755000004516;1563
168;0.5369597999997495;1546
169;0.5399739000004047;1528
170;0.5429540000004636;1511
171;0.5459473999999318;1494
172;0.5489711000009265;1477
173;0.5518804999992426;1460
174;0.5549766000003729;1442
175;0.557961599999544;1425
176;0.5609743000004528;1409
177;0.5637306999997236;1393
178;0.566812499999287;1379
179;0.5698668000004545;1362
180;0.5728644999999233;1346
181;0.575858000000153;1329
182;0.5788754999994126;1314
183;0.5818677999995998;1298
184;0.5848475000002509;1282
185;0.5878680000005261;1265
186;0.5908366999992722;1251
187;0.5938621999994211;1235
188;0.5966938000001392;1220
189;0.5998601999999664;1206
190;0.6028599000001122;1191
191;0.6058427999996638;1175
192;0.608862400000362;1160
193;0.6118318999997427;1145
194;0.6147220000002562;1131
195;0.6178168000005826;1118
196;0.6208114000000933;1102
197;0.623788599999898;1089
198;0.6268526000003476;1076
199;0.6298416000008729;1063
200;0.632861199999752;1050
201;0.635853899999347;1035
202;0.638855400000466;1022
203;0.6418503000004421;1008
204;0.6448514000003343;995
205;0.6476913999995304;983
206;0.6496404999998049;971
207;0.6517889000006107;963
208;0.6547883000002912;953
209;0.6577835999996751;941
210;0.6608271000004606;928
211;0.6638089000007312;916
212;0.6666155000002618;905
213;0.6698553000005631;894
214;0.6728497999993124;881
215;0.6758516000008967;869
216;0.6788603000004514;858
217;0.6818471000005957;847
218;0.6848537000005308;836
219;0.6878400000005058;825
220;0.690849700000399;815
221;0.6938487000006717;804
222;0.6968448999996326;793
223;0.69985749999978;784
224;0.7028511999997136;773
225;0.7058388000004925;763
226;0.7088440999996237;754
227;0.7118485000009969;744
228;0.7148207999998704;734
229;0.7178141000003961;726
230;0.7208571999999549;716
231;0.7238486000005651;708
232;0.7268669999994017;699
233;0.7298539999992499;691
234;0.7328502000000299;683
235;0.7358454000004713;675
236;0.7388487000007444;668
237;0.7418610999993689;661
238;0.7448628000001918;654
239;0.7476786999995966;648
240;0.7508441000009043;643
241;0.753846199999316;637
242;0.7568448000001808;633
243;0.7596873000002233;629
244;0.762854000000516;626
245;0.7658778999993956;623
246;0.7688641000004282;621
247;0.7718244999996386;619
248;0.7748172999999952;619
249;0.7777733000002627;619
250;0.7807106000000203;619
251;0.7839524000009988;620
252;0.7869745000007242;622
253;0.78966279999986;625
254;0.7929261999997834;627
255;0.7959714999997232;631
256;0.798974299999827;635
257;0.8018234000010125;640
258;0.8049800999997387;644
259;0.8079670000006445;651
260;0.8109807000000728;657
261;0.8138686000002053;663
262;0.8168869000000996;669
263;0.8198879999999917;676
264;0.8229742999992595;684
265;0.8258820000010019;693
266;0.8288814000006823;700
267;0.8319707999999082;709
268;0.8349725999996735;717
269;0.8379683000002842;725
270;0.8408873000007588;734
271;0.8437168000000383;742
272;0.846856399999524;752
273;0.849975799999811;760
274;0.8529536000005464;772
275;0.8559698999997636;781
276;0.8589401000008365;791
277;0.8619902999998885;801
278;0.8647944000003918;813
279;0.8679733999997552;821
280;0.8709696000005351;832
281;0.8739777000009781;843
282;0.8769726999998966;853
283;0.8799758999994083;865
284;0.8829700000005687;875
285;0.8859733999997843;886
286;0.8889732000006916;898
287;0.8919729000008374;910
288;0.8949658000001364;922
289;0.8976634000009653;934
290;0.9009688000005553;945
291;0.9039671999998973;959
292;0.9065454999999929;971
293;0.9099765999999363;983
294;0.9129697999997006;998
295;0.9159708000006503;1009
296;0.9189855000004172;1023
297;0.9219247000000905;1037
298;0.9249746999994386;1050
299;0.9279726999993727;1064
300;0.9306844000002457;1077
301;0.9339791000002151;1089
302;0.9369659999993019;1105
303;0.9399782000000414;1118
304;0.9427897999994457;1132
305;0.9456890000001295;1145
306;0.9487924000004568;1159
307;0.9520687000003818;1176
308;0.9552402000008442;1192
309;0.9593760999996448;1211
310;0.9633589999994001;1232
311;0.9662418999996589;1249
312;0.9702159000007669;1266
313;0.9742912000001525;1287
314;0.9782907000007981;1308
315;0.982168599999568;1329
316;0.9846873999995296;1349
317;0.9879588000003423;1362
318;0.9909647999993467;1380
319;0.9939324999995733;1397
320;0.9969837000007828;1414
321;0.9999862000004214;1431
322;1.002984299999298;1447
323;1.0059875000006286;1464
324;1.008982900000774;1480
325;1.011985499999355;1497
326;1.0148456000006263;1514
327;1.017992700000832;1530
328;1.0209868000001734;1549
329;1.0239854000010382;1565
330;1.0269934000007197;1583
331;1.0299904000003153;1600
332;1.0330104999993637;1616
333;1.0359879999996338;1635
334;1.0389830999993137;1652
335;1.0419896999992488;1670
336;1.0449845000002824;1687
337;1.0477406000009069;1705
338;1.0509516000001895;1721
339;1.053991099999621;1741
340;1.056984900000316;1757
341;1.0600164999996196;1775
342;1.0629451999993762;1793
343;1.0660114000002068;1809
344;1.0689848000001803;1829
345;1.0719845999992685;1847
346;1.0749840999997105;1865
347;1.0779894999996031;1884
348;1.0806243000006361;1900
349;1.0840162999993481;1919
350;1.0870082000001275;1941
351;1.0900328999996418;1959
352;1.0930215000007593;1978
353;1.0960063000002265;1996
354;1.099014100000204;2012
355;1.1020071000002645;2034
356;1.1050188000008347;2050
357;1.108008700000937;2072
358;1.110668600000281;2089
359;1.1138952000001154;2107
360;1.1170115999993868;2127
361;1.1199937000001228;2146
362;1.1229942000009032;2165
363;1.125982199999271;2184
364;1.1289873999994597;2203
365;1.1319829000003665;2223
366;1.134988899999371;2241
367;1.1379902999997284;2261
368;1.1409889000005933;2280
369;1.143731399999524;2297
370;1.1469615999994858;2317
371;1.1498370000008435;2337
372;1.1528379999999743;2355
373;1.1558287999996537;2374
374;1.1588238999993337;2394
375;1.1618261999992683;2413
376;1.164684400000624;2432
377;1.1678019000009954;2450
378;1.1708070999993652;2470
379;1.1738850000001548;2490
380;1.1768327000008867;2510
381;1.1798854999997275;2529
382;1.183016700000735;2548
383;1.1860075000004144;2568
384;1.1890146000005188;2588
385;1.1920227000009618;2607
386;1.1949934999993275;2627
387;1.197687500000029;2647
388;1.200984700000845;2664
389;1.2040135999995982;2685
390;1.2070098000003782;2705
391;1.2100112999996782;2724
392;1.2130180000003747;2744
393;1.216007200000604;2761
394;1.2190169999994396;2785
395;1.222009799999796;2804
396;1.2250155000001541;2821
397;1.2280169999994541;2840
398;1.2306690000004892;2858
399;1.2326733000008971;2873
400;1.2346479000007093;2887
401;1.237648000000263;2900
402;1.23965010000029;2918
403;1.2429926999993768;2934
404;1.2460069000007934;2955
405;1.2490128000008553;2972
406;1.2520081000002392;2991
407;1.2550112000008085;3010
408;1.2580209000007017;3028
409;1.26090479999948;3047
410;1.2638571000006777;3063
411;1.2669583000006241;3084
412;1.2699831999998423;3102
413;1.27321160000065;3122
414;1.2759643999997934;3140
415;1.279026399999566;3158
416;1.2830155000010564;3180
417;1.285975700000563;3201
418;1.2889820000000327;3218
419;1.2922742000009748;3238
420;1.2963777999993908;3258
421;1.2993186000003334;3280
422;1.303369200000816;3301
423;1.307373199999347;3325
424;1.3113651999992726;3348
425;1.3148421999994753;3372
426;1.3182550000001356;3390
427;1.3222834999996849;3411
428;1.326297199999317;3434
429;1.3302755000004254;3456
430;1.333211700000902;3478
431;1.3372791000001598;3497
432;1.341268800000762;3519
433;1.344822099999874;3541
434;1.3476915000010194;3560
435;1.351245600000766;3575
436;1.3552851999993436;3596
437;1.3592717999999877;3618
438;1.3631819000001997;3639
439;1.366176400000768;3657
440;1.3701894999994693;3675
441;1.3731879999995726;3696
442;1.3761911000001419;3712
443;1.37918929999978;3727
444;1.382043400000839;3743
445;1.3852081000004546;3757
446;1.389262200000303;3775
447;1.393229400000564;3795
448;1.397306999999273;3813
449;1.4012658999999985;3833
450;1.4052728000006027;3852
451;1.4091872999997577;3871
452;1.4132826999993995;3889
453;1.416233399999328;3907
454;1.4202745000002324;3922
455;1.4242801000000327;3941
456;1.4282665999999153;3959
457;1.4322319000002608;3976
458;1.4362707000000228;3994
459;1.4402783000005002;4010
460;1.4442739000005531;4027
461;1.4478216000006796;4044
462;1.4512257000005775;4058
463;1.455278499999622;4072
464;1.4592716000006476;4089
465;1.4632662999993045;4105
466;1.466238400000293;4118
467;1.4702015000002575;4131
468;1.4731924000006984;4145
469;1.4772747000006348;4157
470;1.4807670999998663;4171
471;1.4842339000006177;4183
472;1.4882737999996607;4196
473;1.4922069999993255;4209
474;1.494897000000492;4222
475;1.497713400000066;4230
476;1.5007710000008956;4239
477;1.5040088000005198;4248
478;1.5070006000005378;4258
479;1.5099924000005558;4266
480;1.5130255000003672;4274
481;1.5159848999992391;4280
482;1.5190136000001075;4288
483;1.5220188000002963;4294
484;1.5250149999992573;4300
485;1.528006300000925;4304
486;1.530660300000818;4308
487;1.5340224999999919;4310
488;1.5370089999996708;4313
489;1.5400105000007898;4314
490;1.5430106000003434;4315
491;1.5460036999993463;4316
492;1.5490129000008892;4315
493;1.5520152999997663;4314
494;1.5550036000004184;4311
495;1.5580140000001848;4309
496;1.5610111000005418;4305
497;1.5636553000003914;4301
498;1.5657210999997915;4298
499;1.5676664000002347;4294
500;1.5695766999997431;4290
501;1.571532699999807;4287
502;1.5735222000002977;4282
503;1.575696699999753;4278
504;1.5777348000010534;4272
505;1.5796585000007326;4267
506;1.5815404999993916;4261
507;1.5837236999996094;4256
508;1.5867381999996724;4250
509;1.5896923000000243;4241
510;1.5917248999994627;4232
511;1.5946968000007473;4225
512;1.5976805000009335;4216
513;1.5995717999994667;4207
514;1.6016536999995878;4201
515;1.6036093000002438;4194
516;1.60562949999985;4188
517;1.6076245000003837;4181
518;1.6095354999997653;4174
519;1.611670199999935;4168
520;1.6136415000000852;4161
521;1.6166699000004883;4153
522;1.6186892999994598;4143
523;1.6206985999997414;4136
524;1.6226662000008218;4128
525;1.624662599999283;4121
526;1.6267115999999078;4114
527;1.628710000000865;4106
528;1.6317324000010558;4098
529;1.6347114000000147;4087
530;1.6367122000010568;4075
531;1.6387300999995205;4068
532;1.6416926000001695;4059
533;1.64366549999977;4048
534;1.6467530000008992;4040
535;1.648625699999684;4029
536;1.6506429000000935;4021
537;1.6536192000003211;4011
538;1.655563100001018;3999
539;1.657507899999473;3991
540;1.6595123000006424;3983
541;1.6615490999993199;3974
542;1.6634802999997191;3965
543;1.6656815000005736;3957
544;1.6676711000000068;3947
545;1.6696463000007498;3938
546;1.6717382999995607;3930
547;1.673494300001039;3920
548;1.6757524000004196;3912
549;1.6787330999995902;3901
550;1.6806040000010398;3889
551;1.6826624999994237;3880
552;1.6846129000005021;3870
553;1.6867134000003716;3861
554;1.6886403000007704;3851
555;1.690704700000424;3843
556;1.692636699999639;3833
557;1.6957232000004296;3823
558;1.6986517999994248;3808
559;1.700514199999816;3794
560;1.70269990000088;3785
561;1.7046640000007756;3775
562;1.7077965999997105;3764
563;1.71075589999964;3749
564;1.7139167999994243;3734
565;1.7167561000005662;3720
566;1.7197840999997425;3704
567;1.7232829999993555;3689
568;1.7271987999993144;3668
569;1.730966700000863;3648
570;1.7340631999995821;3629
571;1.7381552000006195;3612
572;1.7410438000006252;3592
573;1.7440093999994133;3576
574;1.7467479999995703;3561
575;1.748734599999807;3549
576;1.7511326000003464;3538
577;1.754048500000863;3522
578;1.7569024000003992;3505
579;1.7600428000005195;3490
580;1.7631206000005477;3474
581;1.7659954000009748;3458
582;1.7688878000008117;3441
583;1.771898599999986;3425
584;1.7749027000008937;3408
585;1.7776465000006283;3390
586;1.7805938000001333;3374
587;1.7840128000007098;3358
588;1.7869866000000911;3338
589;1.7899878000007448;3320
590;1.7929848999992828;3302
591;1.7959940000000643;3284
592;1.7988729999997304;3268
593;1.8019418999992922;3248
594;1.8049644000002445;3231
595;1.8079541999995854;3213
596;1.810954300000958;3195
597;1.8136353999998391;3177
598;1.8169756999996025;3161
599;1.8199533999995765;3143
600;1.822954999999638;3124
601;1.8259507000002486;3106
602;1.828918799999883;3088
603;1.8319568000006257;3070
604;1.8348793999994086;3051
605;1.8379464999998163;3032
606;1.840945500000089;3014
607;1.8439551999999821;2995
608;1.8476680999992823;2971
609;1.8509735000006913;2954
610;1.853946299999734;2934
611;1.8569712000007712;2915
612;1.8599544000007882;2896
613;1.8629529000008915;2877
614;1.8659932999999;2860
615;1.868951399999787;2840
616;1.8719762000000628;2821
617;1.8749490000009246;2801
618;1.8779601000005641;2783
619;1.8806411999994452;2763
620;1.8839766000000964;2746
621;1.8869558999995206;2726
622;1.8899516000001313;2706
623;1.8929604999993899;2686
624;1.8959539999996196;2666
625;1.898979400000826;2649
626;1.9019869000003382;2628
627;1.9049592999999732;2608
628;1.907518699999855;2590
629;1.9109511000006023;2573
630;1.9136701000006724;2550
631;1.9169724999992468;2534
632;1.919979100001001;2513
633;1.9228748999994423;2494
634;1.9259729000004882;2476
635;1.9289833000002545;2456
636;1.9319847999995545;2437
637;1.9348649000003206;2418
638;1.9378706999996211;2398
639;1.9408376999999746;2380
640;1.9437096000001475;2362
641;1.9468704000009893;2344
642;1.9498696000009659;2324
643;1.952869799999462;2305
644;1.9557313999994221;2286
645;1.9588659000000916;2268
646;1.9618735999993078;2248
647;1.964876699999877;2229
648;1.9678832999998122;2209
649;1.9707168000004458;2190
650;1.9738579000004393;2173
651;1.97687279999991;2151
652;1.9798733000006905;2132
653;1.9828737000007095;2113
654;1.9858557999996265;2095
655;1.9888663000001543;2074
656;1.9918742999998358;2056
657;1.9948423999994702;2036
658;1.9977410000010423;2018
659;2.0008706000007805;1999
660;2.0038696999999956;1982
661;2.006866400000945;1962
662;2.009842200001003;1943
663;2.012875200000053;1924
664;2.015870100000029;1905
665;2.018847800000003;1886
666;2.0218762000004062;1867
667;2.024871900001017;1848
668;2.027881800000614;1830
669;2.030714500000613;1812
670;2.033767999999327;1796
671;2.0368663000008382;1775
672;2.0398798000005627;1757
673;2.042866400001003;1740
674;2.04588110000077;1722
675;2.04889650000041;1706
676;2.051698999999644;1688
677;2.055213499999809;1669
678;2.0592503000007127;1647
679;2.0632707000004302;1623
680;2.0670943000004627;1599
681;2.0700909000006504;1578
682;2.0730827000006684;1561
683;2.076085400000011;1544
684;2.079004499999428;1528
685;2.0818828999999823;1510
686;2.0849505999995017;1495
687;2.087954099999479;1477
688;2.0909523999998783;1460
689;2.0939766000010422;1443
690;2.096713999999338;1426
691;2.098968000000241;1413
692;2.1019192000003386;1398
693;2.10499290000007;1382
694;2.1079773000001296;1365
695;2.1109782999992603;1348
696;2.1136894000010216;1333
697;2.116984300000695;1318
698;2.1199790999999095;1300
699;2.122986899999887;1285
700;2.125982400000794;1269
701;2.1289914999997563;1254
702;2.1319820000007894;1239
703;2.1348997999994026;1222
704;2.1379818999994313;1208
705;2.1409832000008464;1193
706;2.143738000000667;1178
707;2.1469369000005827;1165
708;2.1499913000006927;1148
709;2.152980099999695;1133
710;2.1559919999999693;1119
711;2.158888100000695;1105
712;2.161980599999879;1092
713;2.164989599999899;1076
714;2.167981399999917;1064
715;2.1709788999996817;1050
716;2.1739803000000393;1036
717;2.1769788000001427;1024
718;2.1800014000000374;1009
719;2.182974200000899;998
720;2.185992900000201;984
721;2.1889762000009796;971
