;time;amplitude
0;0.005108800000016345;2932
1;0.010060100000373495;2962
2;0.015150500000345346;2992
3;0.020127700000557525;3021
4;0.024507699999958277;3048
5;0.0285530999999537;3075
6;0.03397020000011253;3098
7;0.03911930000049324;3129
8;0.04411739999977726;3157
9;0.049133399999846006;3182
10;0.053596599999764294;3214
11;0.0571325999999317;3235
12;0.0617776999997659;3254
13;0.06573300000036397;3279
14;0.06959079999978712;3302
15;0.07319220000044879;3322
16;0.0777568000003157;3340
17;0.0817376000004515;3364
18;0.08557079999991402;3385
19;0.09023630000046978;3407
20;0.09371250000003783;3426
21;0.09741980000035255;3445
22;0.10141579999981332;3464
23;0.105069100000037;3484
24;0.10872410000047239;3502
25;0.11272220000046218;3522
26;0.11671860000024026;3543
27;0.1206969000004392;3562
28;0.12452529999973194;3581
29;0.12877630000002682;3598
30;0.13271739999981946;3619
31;0.1377864000005502;3640
32;0.14173510000000533;3662
33;0.14662520000001678;3682
34;0.15069779999976163;3704
35;0.15463259999978618;3722
36;0.15867609999986598;3738
37;0.16264200000023266;3757
38;0.16660700000011275;3774
39;0.17067320000023756;3790
40;0.1742589000004955;3808
41;0.1785157000003892;3822
42;0.18248450000010052;3838
43;0.18611430000055407;3854
44;0.18936889999986306;3870
45;0.19228089999978693;3882
46;0.1962379000005967;3895
47;0.19902280000042083;3909
48;0.2033145000004879;3921
49;0.2070904000001974;3936
50;0.21040259999972477;3950
51;0.21435010000004695;3964
52;0.21701709999979357;3976
53;0.22043850000045495;3985
54;0.22303199999987555;3998
55;0.22659870000006777;4006
56;0.23053170000002865;4022
57;0.23464880000028643;4034
58;0.2386612000000241;4049
59;0.24259890000030282;4060
60;0.24653529999977764;4074
61;0.25047749999976077;4084
62;0.2543738000003941;4098
63;0.2586802000005264;4109
64;0.2625937000002523;4120
65;0.26654750000034255;4132
66;0.2705335999999079;4140
67;0.2741969999997309;4151
68;0.2786711999997351;4161
69;0.2826531000000614;4172
70;0.28665000000000873;4182
71;0.2901498999999603;4191
72;0.29318659999989904;4198
73;0.2973126000006232;4205
74;0.30129480000050535;4214
75;0.3041377999998076;4222
76;0.3083568000001833;4228
77;0.3122649000006277;4235
78;0.31526250000024447;4242
79;0.3182759999999689;4248
80;0.3210575000002791;4253
81;0.3242903000000297;4258
82;0.327274899999793;4263
83;0.33128709999982675;4268
84;0.3342737000002671;4273
85;0.3372789000004559;4277
86;0.3399994000001243;4281
87;0.3432775999999649;4286
88;0.3462872999998581;4289
89;0.3492775000004258;4292
90;0.3532792000005429;4295
91;0.3572801000000254;4298
92;0.3602797000003193;4300
93;0.3632721000003585;4302
94;0.36627539999972214;4303
95;0.3702889000005598;4304
96;0.3742966999998316;4304
97;0.3772840999999971;4304
98;0.381279899999754;4303
99;0.3842811000004076;4302
100;0.3872756999999183;4300
101;0.390092800000275;4299
102;0.39329390000057174;4297
103;0.3962837999997646;4295
104;0.40024710000034247;4292
105;0.40328520000002754;4289
106;0.40604910000001837;4285
107;0.40928140000050917;4282
108;0.41228510000019014;4278
109;0.4152862000000823;4274
110;0.41927860000032524;4269
111;0.423057200000585;4263
112;0.4272746000006009;4257
113;0.4300520000006145;4251
114;0.4332900999997946;4246
115;0.4372806999999739;4240
116;0.44129160000011325;4233
117;0.4442757000006168;4226
118;0.44828140000026906;4219
119;0.45127680000041437;4212
120;0.4542802000005395;4206
121;0.4572846999999456;4200
122;0.4602762000004077;4194
123;0.4632839000005333;4187
124;0.46628380000038305;4180
125;0.47028039999986504;4172
126;0.47306600000047183;4162
127;0.4762663999999859;4156
128;0.4791276000005382;4147
129;0.4822610999999597;4140
130;0.4852757999997266;4132
131;0.4882861000005505;4123
132;0.49112419999983103;4115
133;0.4942612000004374;4108
134;0.49728010000035283;4099
135;0.5002769000002445;4090
136;0.5032852000003913;4081
137;0.5060989000003246;4071
138;0.5092630999997709;4062
139;0.5122787999998764;4053
140;0.5152942000004259;4043
141;0.5182720000002519;4033
142;0.521284999999807;4024
143;0.5238635000005161;4014
144;0.5272854000004372;4005
145;0.5312530000001061;3992
146;0.5341094000004887;3979
147;0.5372803999998723;3970
148;0.5411456000001635;3958
149;0.5442831999998816;3946
150;0.5472866000000067;3934
151;0.5502808999999615;3923
152;0.5542614000005415;3910
153;0.5572583000002851;3897
154;0.5602825000005396;3885
155;0.5632523000003857;3873
156;0.5662810000003446;3861
157;0.5692808000003424;3849
158;0.5722395000002507;3837
159;0.5752929999998742;3825
160;0.5782865999999558;3812
161;0.5822542000005342;3799
162;0.5863545000001977;3782
163;0.5891158000003998;3765
164;0.5922818999997617;3753
165;0.5952809999998863;3740
166;0.5982819000000745;3727
167;0.601280200000474;3714
168;0.6042767999997523;3701
169;0.6082823000006101;3686
170;0.6112930999997843;3668
171;0.614280200000394;3655
172;0.6172926999997799;3641
173;0.6212955000000875;3625
174;0.6242534000002706;3608
175;0.6272810000000391;3594
176;0.6302808999998888;3580
177;0.6340415000004214;3564
178;0.6372714999997697;3547
179;0.6400349000005008;3532
180;0.6432806000002529;3516
181;0.646250400000099;3503
182;0.6492598000004364;3488
183;0.6522820999998657;3473
184;0.6552702999997564;3458
185;0.6582840000000942;3443
186;0.6612817000004725;3427
187;0.6642769000000044;3412
188;0.6670031000003291;3397
189;0.6700417000001835;3382
190;0.673030099999778;3366
191;0.6762888000002931;3349
192;0.6792750000004162;3334
193;0.6822840000004362;3318
194;0.6862606000004234;3300
195;0.6900679999998829;3279
196;0.6932805000005828;3259
197;0.6964268000001539;3243
198;0.7001934999998412;3225
199;0.7032752000004621;3204
200;0.706065899999885;3188
201;0.7092766000005213;3171
202;0.713032600000588;3153
203;0.7160444999999527;3135
204;0.7196258000003581;3117
205;0.723070000000007;3096
206;0.7261783000003561;3076
207;0.7291943999998693;3059
208;0.7334187000005841;3042
209;0.7372965000004115;3016
210;0.7411670000001322;2995
211;0.7444106000002648;2976
212;0.7483815000005052;2957
213;0.7523493999997299;2932
214;0.7561979000001884;2910
215;0.7605460000004314;2886
216;0.7645665000000008;2864
217;0.768576700000267;2840
218;0.7727125999999771;2815
219;0.7765995999998268;2792
220;0.7805554000005941;2767
221;0.784554300000309;2744
222;0.788698000000295;2722
223;0.7922366000002512;2696
224;0.7956077999997433;2678
225;0.79928689999997;2657
226;0.802287299999989;2637
227;0.8052395000004253;2619
228;0.8082782000001316;2603
229;0.8112877000003209;2584
230;0.8140481999998883;2566
231;0.817188800000622;2549
232;0.8201090000002296;2531
233;0.8230202000004283;2515
234;0.8262081000002581;2496
235;0.8292797000003702;2477
236;0.8320658000002368;2461
237;0.8349913000001834;2444
238;0.838194900000417;2425
239;0.8412042999998448;2410
240;0.844202000000223;2391
241;0.8471991000005801;2373
242;0.8502010000001974;2355
243;0.8531988000004276;2337
244;0.8559055000005173;2321
245;0.8592000999997254;2304
246;0.8621905999998489;2285
247;0.8652034000006097;2267
248;0.8681891000005635;2250
249;0.8709968000002846;2233
250;0.8741969000002427;2216
251;0.8771920999997747;2197
252;0.8801909000003434;2180
253;0.8830103000000236;2160
254;0.8858294999999998;2147
255;0.8878027000000657;2131
256;0.8908042000002752;2118
257;0.8941535000003569;2101
258;0.8971529999998893;2081
259;0.9002172000000428;2064
260;0.9031715999999506;2046
261;0.9058397999997396;2029
262;0.9089893000000302;2015
263;0.9122004000000743;1994
264;0.9152067000004536;1976
265;0.9181939999998576;1961
266;0.9212030999997296;1942
267;0.9241937000006146;1927
268;0.9271975000001476;1910
269;0.9299553000000742;1892
270;0.9331959999999526;1876
271;0.9361994000000777;1859
272;0.9389943000005587;1842
273;0.9421958000002633;1826
274;0.9453645000003235;1806
275;0.9480610999999044;1792
276;0.9511930999997276;1776
277;0.9541865999999573;1757
278;0.9571919999998499;1742
279;0.9601972999998907;1726
280;0.9640891999997621;1705
281;0.9670055000005959;1689
282;0.9699884999999995;1674
283;0.9744156000006114;1654
284;0.978777600000285;1630
285;0.9837699999998222;1603
286;0.9886630000000878;1576
287;0.9936024999997244;1554
288;0.9976567000003342;1530
289;1.001679900000454;1510
290;1.006406500000594;1485
291;1.010895000000346;1465
292;1.0159346999998888;1442
293;1.0206053000001702;1414
294;1.0251990000006117;1394
295;1.0297191999998176;1372
296;1.0335956999997507;1353
297;1.0375480000002426;1333
298;1.0416070000001127;1317
299;1.0456074000003355;1297
300;1.0495798000001741;1279
301;1.0535595000001194;1260
302;1.0571121000002677;1240
303;1.061577600000419;1224
304;1.0653447000004235;1205
305;1.0695970000006128;1190
306;1.0741083000002618;1167
307;1.0785949999999502;1152
308;1.0825659000001906;1134
309;1.0866289000005054;1118
310;1.0900836999999228;1102
311;1.093377700000019;1088
312;1.0976376999997228;1075
313;1.1016036999999415;1058
314;1.1056413000005705;1045
315;1.1095696000002135;1030
316;1.1135479000004125;1016
317;1.117511000000377;1000
318;1.1215803000004598;988
319;1.124293800000487;974
320;1.127295000000231;964
321;1.1302204000003258;954
322;1.1341448000002856;944
323;1.137559499999952;932
324;1.1415858999998818;920
325;1.1455175000000963;908
326;1.1495426000001316;896
327;1.1535349000005226;884
328;1.157293799999934;873
329;1.1604944000000614;863
330;1.1645275999999285;853
331;1.1673820000005435;843
332;1.1715751000001546;835
333;1.1744846999999936;825
334;1.1785371000005398;816
335;1.1820379000000685;806
336;1.1855922000004284;799
337;1.1892540999997436;790
338;1.192497099999855;783
339;1.1965405999999348;775
340;1.2006218000005902;767
341;1.2045898000005764;758
342;1.2086239000000205;751
343;1.2125949000001128;743
344;1.2165413000002445;736
345;1.2205549999998766;729
346;1.2245142000001579;723
347;1.2285197000001062;717
348;1.2320369999997638;711
349;1.2355124000005162;706
350;1.2391965000006167;701
351;1.242486099999951;697
352;1.2460528000001432;693
353;1.2494966000003842;689
354;1.253529100000378;685
355;1.2570286000000124;681
356;1.2603166999997484;678
357;1.263054000000011;676
358;1.2660760999997365;673
359;1.2693137000005663;671
360;1.272540900000422;669
361;1.2761434000003646;667
362;1.2801423000000796;665
363;1.2832957000000533;664
364;1.2863591000004817;663
365;1.2901357000000644;662
366;1.2932523999998011;661
367;1.2962980000002062;661
368;1.2995787999998356;660
369;1.303225999999995;660
370;1.3074708000003739;661
371;1.3116337000001295;661
372;1.3156115000001591;663
373;1.319624400000066;664
374;1.323051999999734;666
375;1.3264844000004814;668
376;1.3305756999998266;670
377;1.3345145000002958;672
378;1.3380796000001283;675
379;1.3411880000003293;678
380;1.3441517999999633;681
381;1.348478900000373;684
382;1.3524474000005284;688
383;1.3573584000005212;693
384;1.3614328000003297;697
385;1.365407199999936;702
386;1.3691177999999127;707
387;1.3731053999999858;713
388;1.3763589999998658;718
389;1.3804251000001386;723
390;1.3832189000004291;729
391;1.3863704000004873;734
392;1.3900322999998025;740
393;1.3933929000004355;746
394;1.3974600000001374;753
395;1.4000972000003458;760
396;1.4033926000001884;766
397;1.4073858000001565;773
398;1.4114614999998594;781
399;1.4143834000005882;790
400;1.417377700000543;797
401;1.421462000000247;805
402;1.4241799999999785;814
403;1.427468100000624;821
404;1.431351000000177;831
405;1.4343926999999894;839
406;1.4384470000004512;848
407;1.4424208000000363;860
408;1.4451690000005328;870
409;1.4493864000005487;880
410;1.4534591000001456;890
411;1.457090099999732;903
412;1.4600397000003795;913
413;1.4629663000005166;921
414;1.4659059000005072;931
415;1.4688012000005983;940
416;1.470817200000056;949
417;1.472774500000014;955
418;1.4747739000004003;962
419;1.476874900000439;969
420;1.4787728000001152;976
421;1.4809144000000742;982
422;1.4837790999999925;991
423;1.4857968000005712;999
424;1.487698900000396;1006
425;1.4897792000001573;1013
426;1.4918698999999833;1021
427;1.493785000000571;1027
428;1.495830500000011;1034
429;1.4988192000000709;1043
430;1.5008213999999498;1053
431;1.5028086000002077;1061
432;1.5048513000001549;1068
433;1.5078522000003431;1078
434;1.5097734000000855;1087
435;1.5128091000005952;1096
436;1.5148155000006227;1107
437;1.516830000000482;1115
438;1.5188316000003397;1122
439;1.5208309999998164;1130
440;1.522916300000361;1138
441;1.524882300000172;1147
442;1.5268894999999247;1155
443;1.5298803000005137;1164
444;1.53187539999999;1176
445;1.5338587000005646;1185
446;1.5358728000001065;1193
447;1.537873899999795;1202
448;1.5399050000005445;1210
449;1.5418236000004981;1218
450;1.5437707999999475;1228
451;1.5458698000002187;1236
452;1.5477503000001889;1245
453;1.5497603000003437;1253
454;1.5517336000002615;1262
455;1.5538867000004757;1271
456;1.5558246999999028;1280
457;1.5588911000004373;1291
458;1.5608584999999948;1303
459;1.5628758000002563;1312
460;1.5648746000006213;1322
461;1.5668727000002036;1331
462;1.5688895000002958;1340
463;1.570897700000387;1350
464;1.5743720999998914;1360
465;1.5786800000005314;1381
466;1.5837744999998904;1404
467;1.5888365000000704;1427
468;1.5936468999998397;1453
469;1.5976153000001432;1476
470;1.6014787000003707;1495
471;1.605435700000271;1515
472;1.608220799999799;1533
473;1.6112252000002627;1549
474;1.614280300000246;1564
475;1.618406700000378;1581
476;1.6220628999999462;1603
477;1.6254036999998789;1619
478;1.6294325999997454;1639
479;1.6334130000004734;1661
480;1.6360263000005943;1680
481;1.6401027000001704;1697
482;1.6433538000001136;1718
483;1.6474201999999423;1736
484;1.6514274000001024;1757
485;1.6542767000000822;1778
486;1.6572864999998274;1793
487;1.660271200000352;1810
488;1.6643807999998899;1828
489;1.6680277000004935;1850
490;1.6712766999999076;1870
491;1.6742982000005213;1886
492;1.6783835000005638;1906
493;1.6824745000003531;1928
494;1.6863600000006045;1952
495;1.6902482000004966;1973
496;1.6932134999997288;1995
497;1.6975185000001147;2014
498;1.7010596999998597;2039
499;1.7055519000005006;2060
500;1.709441500000139;2085
501;1.7135902999998507;2106
502;1.7174648000000161;2131
503;1.7202581999999893;2152
504;1.7230715000005148;2169
505;1.7262333999997281;2186
506;1.729264300000068;2204
507;1.7329491999998936;2223
508;1.7364972000004855;2242
509;1.7401558000001387;2265
510;1.7434382000001278;2285
511;1.7474320000001171;2304
512;1.7511590000003707;2328
513;1.7541172999999617;2349
514;1.757041200000458;2367
515;1.7614141000003656;2386
516;1.7654180999998061;2410
517;1.7690440000005765;2433
518;1.7723242000001846;2453
519;1.7762400000001435;2474
520;1.78025179999986;2497
521;1.7842548999997234;2519
522;1.7881563000000824;2543
523;1.7913361999999324;2564
524;1.7953299000000698;2583
525;1.799341099999765;2608
526;1.8032785000004878;2630
527;1.8060090999997556;2653
528;1.8094511999997849;2669
529;1.8135034000006272;2689
530;1.8174994999999399;2714
531;1.8214849000005415;2737
532;1.8244065999997474;2757
533;1.8285061000005953;2777
534;1.832493500000055;2800
535;1.836500999999771;2824
536;1.8399335000003703;2847
537;1.8434891000006246;2864
538;1.8475103999999192;2887
539;1.8515566000005492;2911
540;1.855170900000303;2934
541;1.858461100000568;2953
542;1.8625006000002031;2973
543;1.8663752000002205;2996
544;1.8705552999999782;3018
545;1.872937500000262;3039
546;1.8764683999997942;3055
547;1.8804964999999356;3076
548;1.8844866999997976;3098
549;1.88852339999994;3120
550;1.8912916999997833;3140
551;1.8955254000002242;3157
552;1.899484499999744;3181
553;1.9034996999998839;3200
554;1.9074313000000984;3224
555;1.9115345000000161;3244
556;1.9155025000000023;3267
557;1.919469399999798;3288
558;1.9229818000003434;3308
559;1.9264695000001666;3326
560;1.9292661999998018;3344
561;1.9334274000002551;3360
562;1.937536700000237;3381
563;1.941503900000498;3401
564;1.94549730000017;3422
565;1.9491581000002043;3442
566;1.952470700000049;3458
567;1.9560240999999223;3477
568;1.959248000000116;3495
569;1.9635213999999905;3510
570;1.9675084000000425;3531
571;1.9715014000003066;3551
572;1.9742542000003596;3568
573;1.9785238000004028;3582
574;1.9820463000005475;3603
575;1.9854418000004443;3620
576;1.9890667999998186;3635
577;1.9935150999999678;3653
578;1.9971870999997918;3673
579;2.0004720000006273;3688
580;2.0045176000003266;3703
581;2.0072847999999794;3719
582;2.0115139999998064;3733
583;2.01550750000024;3752
584;2.0194892999998046;3769
585;2.0230184000001827;3786
586;2.0275621999999203;3801
587;2.0314753000002383;3819
588;2.0354976999997234;3834
589;2.039107200000217;3850
590;2.042446000000382;3863
591;2.0465259000002334;3876
592;2.0501266999999643;3892
593;2.0545106999998097;3907
594;2.0574407000003703;3920
595;2.06118349999997;3933
596;2.0655040999999983;3947
597;2.069496099999924;3962
598;2.073011399999814;3976
599;2.0763482000002114;3988
600;2.0805098000000726;4000
601;2.0844908999997642;4013
602;2.08852509999997;4026
603;2.0909867000000304;4037
604;2.0944657000000007;4045
605;2.098500199999762;4057
606;2.10255750000033;4069
607;2.105913000000328;4081
608;2.109548800000084;4090
609;2.113591400000587;4100
610;2.1175496000005296;4112
611;2.1215828000003967;4122
612;2.125519400000485;4131
613;2.1294840000000477;4142
614;2.1333745000001727;4150
615;2.1375004000001354;4159
616;2.1415163000001485;4168
617;2.145495700000538;4178
618;2.1494656000004397;4186
619;2.153527500000564;4193
620;2.1574673000004623;4201
621;2.161487500000476;4208
622;2.1654803000001266;4216
623;2.169497599999886;4223
624;2.173049400000309;4231
625;2.177520799999911;4236
626;2.181498599999941;4242
627;2.1851455000005444;4248
628;2.1891058999999586;4254
629;2.1935189000005266;4259
630;2.19748460000028;4264
631;2.2010360000003857;4269
632;2.204443800000263;4272
633;2.207447200000388;4275
634;2.211500100000194;4278
635;2.2155063999998674;4281
636;2.2194893000005322;4284
637;2.2230248000005304;4287
638;2.2262909000000946;4289
639;2.229440799999793;4291
640;2.2330397000005178;4292
641;2.236471100000017;4293
642;2.240259199999855;4294
643;2.2445232000000033;4295
644;2.2479871000005005;4295
645;2.2512550999999803;4296
646;2.254422300000442;4295
647;2.2571997000004558;4295
648;2.2611155000004146;4295
649;2.264404999999897;4294
650;2.2682025000003705;4293
651;2.2715625999999247;4292
652;2.274998500000038;4291
653;2.2779018999999607;4289
654;2.280900499999916;4288
655;2.2845533999998224;4287
656;2.288430200000221;4284
657;2.291251900000134;4281
658;2.2943976000005932;4279
659;2.2982182000005196;4277
660;2.3024645000004966;4273
661;2.3049337000002197;4270
662;2.3083698000000368;4267
663;2.3124188000001595;4263
664;2.3164768000006006;4258
665;2.3205118000005314;4253
666;2.3228752000004533;4248
667;2.3264513000003717;4244
668;2.32938970000032;4240
669;2.332393800000318;4235
670;2.3353862000003573;4230
671;2.338434500000403;4225
672;2.341315300000133;4220
673;2.344267800000125;4215
674;2.3472776999997222;4209
675;2.3502391000001808;4204
676;2.35304989999986;4198
677;2.3559806000002936;4193
678;2.3592091999998956;4186
679;2.3621995000003153;4181
680;2.365193000000545;4174
681;2.3681752000002234;4168
682;2.3712704999998095;4160
683;2.3742097000003923;4155
684;2.377232400000139;4146
685;2.3802096999997957;4139
686;2.3832146000004286;4132
687;2.386187500000233;4124
688;2.3888655000000654;4116
689;2.3922244000004866;4110
690;2.395181599999887;4100
691;2.398178000000371;4092
692;2.401173100000051;4085
693;2.404056700000183;4076
694;2.4071892000001753;4069
695;2.4101848000000246;4059
696;2.413180000000466;4050
697;2.4161767000005057;4041
698;2.4189931000000797;4032
699;2.4219051999998555;4024
700;2.4252286000000822;4014
701;2.428182000000561;4003
702;2.431180000000495;3993
703;2.4342021000002205;3983
704;2.437183900000491;3973
705;2.4401809999999386;3963
706;2.4431814999998096;3952
707;2.4461874999997235;3941
708;2.4491816999998264;3930
709;2.4521844000000783;3920
710;2.4551852000004146;3908
711;2.4581881000003705;3897
712;2.461187400000199;3886
713;2.464168999999856;3874
714;2.4671675999998115;3863
715;2.4701676000004227;3852
716;2.473171800000273;3840
717;2.476165900000524;3828
718;2.479166400000395;3816
719;2.482045100000505;3804
720;2.48516329999984;3793
721;2.4881384000000253;3780
722;2.4911708999998154;3767
723;2.494166100000257;3755
