;time;amplitude
0;0.004624600000170176;3448
1;0.009672399999544723;3434
2;0.014704100000017206;3420
3;0.019927000000279804;3405
4;0.02411709999978484;3389
5;0.029808399999637913;3375
6;0.03465820000019448;3357
7;0.03917249999994965;3340
8;0.04344849999961298;3327
9;0.04723889999968378;3313
10;0.0511225000000195;3301
11;0.054944200000136334;3288
12;0.058112200000323355;3276
13;0.062091200000395474;3263
14;0.06593820000034611;3249
15;0.06993390000025101;3235
16;0.0727777000001879;3222
17;0.07721109999965847;3211
18;0.0813045000004422;3195
19;0.0853170999998838;3180
20;0.08922809999967285;3165
21;0.09224660000018048;3152
22;0.09632249999958731;3139
23;0.10031629999957659;3124
24;0.10428400000000693;3107
25;0.10836769999968965;3093
26;0.11225709999962419;3076
27;0.11631229999966308;3064
28;0.12067079999997077;3048
29;0.12374530000033701;3031
30;0.12670900000011898;3020
31;0.129672600000049;3008
32;0.13269909999962692;2997
33;0.13465569999971194;2986
34;0.1366464000002452;2978
35;0.13964209999994637;2970
36;0.1429244999999355;2957
37;0.14591399999972055;2943
38;0.14893089999986842;2931
39;0.1517057000000932;2919
40;0.15496150000035414;2909
41;0.15795929999967484;2896
42;0.16095539999969333;2882
43;0.16395350000038889;2870
44;0.1669331000002785;2858
45;0.16995800000040617;2847
46;0.17261359999974957;2833
47;0.17595590000019;2821
48;0.1789550000003146;2808
49;0.1819500000001426;2795
50;0.1849566999999297;2783
51;0.18795219999992696;2770
52;0.1909574999999677;2758
53;0.19395739999981743;2744
54;0.19695450000017445;2731
55;0.1999638999996023;2719
56;0.20296529999995983;2705
57;0.2055859000001874;2693
58;0.20896189999984927;2682
59;0.21193529999982275;2668
60;0.21472090000042954;2655
61;0.2178897000003417;2645
62;0.220891599999959;2628
63;0.22390030000042316;2617
64;0.2269101000001683;2603
65;0.22985739999967336;2589
66;0.23288179999963177;2577
67;0.2358950999996523;2563
68;0.23888869999973394;2550
69;0.24188039999989996;2538
70;0.2448805000003631;2526
71;0.2486378000003242;2509
72;0.2518836999997802;2496
73;0.25489459999971587;2481
74;0.2578918999997768;2469
75;0.26087829999960377;2455
76;0.2639225000002625;2443
77;0.26688889999968524;2430
78;0.269888699999683;2416
79;0.2726223999998183;2402
80;0.27589369999986957;2391
81;0.2788884000001417;2376
82;0.2818842999995468;2363
83;0.2848930999998629;2349
84;0.2878909000000931;2337
85;0.2908907000000909;2324
86;0.29359500000009575;2310
87;0.2968895000003613;2298
88;0.2998805999995966;2284
89;0.30288240000027145;2272
90;0.30556369999976596;2259
91;0.30880489999981364;2247
92;0.31187690000024304;2233
93;0.3163081000002421;2216
94;0.32031199999983073;2199
95;0.3242780999999013;2182
96;0.3282192999995459;2164
97;0.3311530999999377;2149
98;0.3352191000003586;2135
99;0.33815059999960795;2119
100;0.3406729999996969;2107
101;0.34413580000000366;2094
102;0.34823359999973036;2080
103;0.3522128000004159;2063
104;0.3551543000003221;2047
105;0.3587409000001571;2032
106;0.3621698999995715;2019
107;0.3661957000003895;2005
108;0.37024269999983517;1988
109;0.3741700000000492;1970
110;0.37821509999957925;1954
111;0.38113979999980074;1938
112;0.38522370000009687;1925
113;0.38784769999983837;1909
114;0.39122430000043096;1900
115;0.3947961000003488;1884
116;0.3981501999996908;1869
117;0.4017893999998705;1857
118;0.4051622999995743;1842
119;0.4081490999997186;1830
120;0.4121959000003699;1817
121;0.4161959000002753;1802
122;0.42014540000036504;1786
123;0.42405479999979434;1770
124;0.4271398999999292;1756
125;0.4309708999999202;1744
126;0.4339503000001059;1730
127;0.4369491999996171;1720
128;0.43964469999991707;1709
129;0.4429030999999668;1699
130;0.44590750000043045;1687
131;0.448906700000407;1675
132;0.45192279999992024;1665
133;0.4548974999997881;1653
134;0.45792660000006435;1644
135;0.4609253999997236;1634
136;0.46392939999986993;1623
137;0.4669224999997823;1612
138;0.469941999999719;1602
139;0.47394059999987803;1589
140;0.476943200000278;1577
141;0.4799334999997882;1567
142;0.4827441999996154;1559
143;0.4857579999998052;1549
144;0.48889839999992546;1540
145;0.49330860000009125;1525
146;0.49730280000039784;1512
147;0.5011794000001828;1499
148;0.5036731999998665;1488
149;0.507150499999625;1481
150;0.509971499999665;1469
151;0.5129693999997471;1461
152;0.5159947000001921;1452
153;0.5190051999998104;1442
154;0.5220695999996678;1432
155;0.5249661999996533;1423
156;0.527962000000116;1415
157;0.5309577999996691;1406
158;0.5336839000001419;1396
159;0.5367709000001923;1388
160;0.5395334000004368;1380
161;0.5417137000004004;1372
162;0.5447256999996171;1366
163;0.5483438999999635;1358
164;0.550657499999943;1347
165;0.553910900000119;1340
166;0.5566883999999845;1332
167;0.5598533000002135;1324
168;0.5628735000000233;1316
169;0.5661425999996936;1308
170;0.5701251999998931;1299
171;0.5726616000001741;1290
172;0.5757446999996318;1284
173;0.5787594000003082;1277
174;0.5820339000001695;1270
175;0.5849872999997388;1262
176;0.5878284999998868;1256
177;0.5909461999999621;1250
178;0.5939205000004222;1242
179;0.5969218999998702;1237
180;0.5998896000000968;1231
181;0.6029427000003125;1224
182;0.6056202999998277;1218
183;0.6089493999998012;1213
184;0.6119533999999476;1208
185;0.6149176999997508;1203
186;0.6179234999999608;1197
187;0.6208821000000171;1192
188;0.6239348999997674;1188
189;0.6269209000001865;1182
190;0.6299319999998261;1178
191;0.6329513000000588;1173
192;0.6359194999995452;1168
193;0.638865099999748;1164
194;0.6419495999998617;1159
195;0.6448240999998234;1155
196;0.647831700000097;1151
197;0.6508407000001171;1147
198;0.6539149999998699;1143
199;0.6569250000002285;1139
200;0.6599239999995916;1135
201;0.662919200000033;1132
202;0.6659259999996721;1128
203;0.6686030000000756;1125
204;0.6709529999998267;1123
205;0.6739575999999943;1120
206;0.6769258000003902;1117
207;0.6799176000004081;1115
208;0.6828992000000653;1112
209;0.6859395999999833;1109
210;0.6888412999996945;1107
211;0.6919455999995989;1105
212;0.6949275999995734;1103
213;0.6979443999998693;1101
214;0.7009435999998459;1099
215;0.7039452999997593;1098
216;0.7069197999999233;1096
217;0.7099415000002409;1095
218;0.7129420000001119;1094
219;0.7155118999999104;1093
220;0.718948900000214;1092
221;0.7219099000003553;1091
222;0.7249438999997437;1090
223;0.7279175000003306;1090
224;0.7308956999995644;1089
225;0.7339198999998189;1089
226;0.7369441999999253;1089
227;0.7399414000001343;1089
228;0.7429578000001129;1089
229;0.7459453000001304;1090
230;0.7489433999999164;1091
231;0.7519368000002942;1091
232;0.7549246999997195;1091
233;0.7579255000000558;1092
234;0.7609143999998196;1093
235;0.7639244000001781;1094
236;0.7669267999999647;1095
237;0.7699413000000277;1096
238;0.7726086000002397;1098
239;0.7759464999999182;1099
240;0.7788954999996349;1101
241;0.7819197999997414;1102
242;0.7849458000000595;1104
243;0.7879498000002059;1107
244;0.7909415000003719;1109
245;0.7935766999999032;1111
246;0.7969433999996909;1113
247;0.7999323000003642;1116
248;0.8029122999996616;1119
249;0.8056413000003886;1122
250;0.8089382999996815;1125
251;0.8119366000000809;1129
252;0.8149363000002268;1132
253;0.8179391000003307;1135
254;0.8209258999995654;1139
255;0.8239388000001782;1142
256;0.8268071000002237;1146
257;0.8299292000001515;1150
258;0.8329102999996394;1154
259;0.8358969000000798;1158
260;0.8387978000000658;1162
261;0.8419401999999536;1167
262;0.8449257000002035;1171
263;0.8479338999995889;1176
264;0.8509358999999677;1181
265;0.8539074999998775;1186
266;0.856653699999697;1191
267;0.8599231999996846;1196
268;0.8629284999997253;1202
269;0.8659102999999959;1208
270;0.8689384999997856;1213
271;0.8718742999999449;1219
272;0.8749297000003935;1225
273;0.877923600000031;1231
274;0.8809301999999661;1236
275;0.8839286000002176;1243
276;0.886931199999708;1249
277;0.8896740999998656;1255
278;0.8926400000000285;1262
279;0.8956336000001102;1268
280;0.8986101000000417;1275
281;0.9019135999997161;1282
282;0.905687499999658;1292
283;0.9089555999998993;1298
284;0.912123199999769;1307
285;0.9151164000004428;1315
286;0.9181158999999752;1323
287;0.9217771000003268;1332
288;0.9251764999999068;1340
289;0.9292284000002837;1349
290;0.9321489000003567;1359
291;0.9362276000001657;1368
292;0.9397275999999692;1379
293;0.9431760999996186;1389
294;0.947232399999848;1398
295;0.951222400000006;1409
296;0.9552305999995951;1421
297;0.9581686999999874;1431
298;0.9622325999998793;1441
299;0.9651316999998016;1453
300;0.969219499999781;1463
301;0.9727616999998645;1475
302;0.9761510999996972;1487
303;0.9801454999997077;1497
304;0.9842240999996648;1510
305;0.988230900000417;1524
306;0.9911541999999827;1536
307;0.9952285999997912;1548
308;0.9981525000002875;1561
309;1.0022495000002891;1571
310;1.005153899999641;1585
311;1.0081621999997878;1594
312;1.0122240000000602;1607
313;1.0162051999996038;1622
314;1.0191377000001012;1636
315;1.0227621000003637;1648
316;1.0261704000004102;1660
317;1.030228100000386;1674
318;1.0331144000001586;1688
319;1.0371949999998833;1701
320;1.0412153999996008;1715
321;1.0440797999999631;1728
322;1.0481395999995584;1741
323;1.0511589999996431;1755
324;1.0550304999997024;1768
325;1.058094799999708;1781
326;1.0611301999997522;1794
327;1.0648573999997097;1806
328;1.068168599999808;1821
329;1.0722531000001254;1834
330;1.0762318999995841;1849
331;1.079117999999653;1865
332;1.0827376999995977;1877
333;1.0861696000001757;1891
334;1.0897156999999424;1905
335;1.0929546999996091;1919
336;1.0961647000003722;1932
337;1.0997605000002295;1945
338;1.1029685000003155;1960
339;1.105609000000186;1973
340;1.1087322000003041;1983
341;1.1117487000001347;1996
342;1.1146718999998484;2011
343;1.1179407999998148;2023
344;1.1207954999999856;2036
345;1.1240119000003688;2049
346;1.126887600000373;2063
347;1.1298978000004354;2075
348;1.1328996000002007;2088
349;1.1362582000001566;2102
350;1.1397030999996787;2117
351;1.1429107000003569;2130
352;1.145911900000101;2144
353;1.1488998000004358;2157
354;1.151927799999612;2170
355;1.1546639999996842;2183
356;1.1569372000003568;2194
357;1.1599552999996376;2205
358;1.1629265999999916;2219
359;1.165930600000138;2231
360;1.1689300999996703;2245
361;1.1719715999997788;2258
362;1.1749319999998988;2272
363;1.1779239999996207;2284
364;1.1809532999996009;2298
365;1.183950100000402;2312
366;1.1866307999998753;2325
367;1.189956500000335;2336
368;1.1929507000004378;2351
369;1.195932100000391;2364
370;1.1989406000002418;2378
371;1.201878900000338;2392
372;1.2049338999995598;2405
373;1.2079382000001715;2417
374;1.2109302999997453;2431
375;1.2139287999998487;2444
376;1.2169278000001214;2458
377;1.2199330000003101;2471
378;1.2227335999996285;2485
379;1.2259293999995862;2497
380;1.2289387000000715;2511
381;1.231934000000365;2524
382;1.2349262999996427;2537
383;1.2379328999995778;2550
384;1.2409318999998504;2563
385;1.2439372999997431;2577
386;1.2469311000004382;2590
387;1.2496285999995962;2604
388;1.2529309000001376;2616
389;1.2556315000001632;2630
390;1.2589355000000069;2642
391;1.2619244999996226;2656
392;1.2646654000000126;2670
393;1.2679140999998708;2681
394;1.270926999999574;2697
395;1.2739300000002913;2709
396;1.2769312000000355;2723
397;1.2797725000000355;2736
398;1.282927500000369;2749
399;1.285934599999564;2763
400;1.2886511999995491;2776
401;1.291937300000427;2788
402;1.294932499999959;2803
403;1.2979346000001897;2815
404;1.3009271999999328;2830
405;1.3039404999999533;2843
406;1.3069311999997808;2856
407;1.3099301000002015;2869
408;1.312582100000327;2882
409;1.3156456999995498;2893
410;1.3189264000002368;2907
411;1.32194569999956;2920
412;1.3249073999995744;2934
413;1.3279114999995727;2947
414;1.3309117999997397;2959
415;1.3339348999998037;2972
416;1.3369322999997166;2984
417;1.3399300000000949;2997
418;1.3425366999999824;3009
419;1.345959700000094;3019
420;1.3489416000002166;3033
421;1.3519328000002133;3045
422;1.354907799999637;3057
423;1.3578724999997576;3068
424;1.3609466999996584;3082
425;1.3639343000004374;3094
426;1.3669319000000542;3106
427;1.3699264999995648;3118
428;1.3726493000003757;3131
429;1.3756624999996347;3141
430;1.377642299999934;3152
431;1.3796179999999367;3159
432;1.381637700000283;3167
433;1.383645300000353;3175
434;1.3859128000003693;3183
435;1.3886168999997608;3193
436;1.3916521000001012;3203
437;1.394942699999774;3215
438;1.3977616000001944;3227
439;1.400757600000361;3238
440;1.4037860999997065;3249
441;1.406676100000368;3261
442;1.4099874000003183;3271
443;1.4129034999996293;3283
444;1.4157595999995465;3294
445;1.4190091999998913;3305
446;1.4222614999998768;3318
447;1.4251750000003085;3328
448;1.4292249999998603;3341
449;1.4332217999999557;3355
450;1.4372301000003063;3368
451;1.4401547999996183;3381
452;1.4442236000004414;3391
453;1.4482239999997546;3404
454;1.452229299999999;3417
455;1.45579220000036;3432
456;1.459160499999598;3444
457;1.4632165000002715;3454
458;1.467228299999988;3467
459;1.4711885999995502;3480
460;1.4739110999998957;3491
461;1.476895499999955;3499
462;1.4798870000004172;3509
463;1.4843219000003955;3519
464;1.4881677000003037;3533
465;1.4928178000000116;3544
466;1.4977719999997134;3558
467;1.5019807999997283;3571
468;1.505960999999843;3583
469;1.5093122999996922;3591
470;1.5133316999999806;3602
471;1.5169710000000123;3613
472;1.5212006000001566;3623
473;1.5242297000004328;3632
474;1.5280294000003778;3641
475;1.5320218999995632;3650
476;1.5360235999996803;3659
477;1.5387546000001748;3668
478;1.5419976000002862;3674
479;1.5449967000004108;3682
480;1.5476453999999649;3689
481;1.5507697000002736;3694
482;1.55375819999972;3701
483;1.556782800000292;3707
484;1.5597933999997622;3713
485;1.562744500000008;3719
486;1.5673482000001968;3727
487;1.571335700000418;3735
488;1.5741737999996985;3742
489;1.5782090000002427;3749
490;1.5812018999995416;3755
491;1.585232399999768;3761
492;1.5889121999998679;3768
493;1.5922301999999036;3773
494;1.5957705999999234;3780
495;1.599148100000093;3785
496;1.6031966000000466;3791
497;1.6071973999996771;3797
498;1.6112277000001995;3803
499;1.6139006000003064;3807
500;1.6171518000001015;3812
501;1.6212323999998262;3816
502;1.6236024999998335;3820
503;1.6268434000003253;3823
504;1.6301618999996208;3827
505;1.6330478999998377;3830
506;1.6359657000002699;3832
507;1.6387566000003062;3835
508;1.6416520000002492;3837
509;1.6447533000000476;3840
510;1.6476826999996774;3843
511;1.6511301999998977;3845
512;1.6552297999996881;3848
513;1.6577735999999277;3850
514;1.6609557000001587;3851
515;1.6639483999997537;3853
516;1.6670194999996966;3855
517;1.669981000000007;3856
518;1.672648499999923;3858
519;1.6746547000002465;3859
520;1.6779773999996905;3860
521;1.6809716999996454;3861
522;1.6839650000001711;3862
523;1.6869469000002937;3863
524;1.6899720999999772;3863
525;1.6929731000000174;3864
526;1.6959630999999717;3864
527;1.698975000000246;3865
528;1.7019702999996298;3865
529;1.7046935999997004;3865
530;1.7069718000002467;3865
531;1.7099742000000333;3865
532;1.7129695000003267;3865
533;1.7158988999999565;3864
534;1.7189660000003641;3864
535;1.7219232999996166;3863
536;1.7249689000000217;3862
537;1.7279687999998714;3861
538;1.7309721999999965;3860
539;1.7339690999997401;3859
540;1.7369716000002882;3857
541;1.7399773999995887;3855
542;1.742972699999882;3853
543;1.7459693999999217;3851
544;1.7489665000002788;3849
545;1.7517183999998451;3847
546;1.7549701999996614;3845
547;1.7579686999997648;3843
548;1.7609861999999339;3840
549;1.763984100000016;3838
550;1.7669745000002877;3835
551;1.7699579000000085;3832
552;1.772945499999878;3830
553;1.7759554000003845;3826
554;1.778951600000255;3823
555;1.7819626000000426;3820
556;1.7849570999997013;3817
557;1.7879550999996354;3813
558;1.7909668000002057;3809
559;1.7939606999998432;3806
560;1.796954999999798;3802
561;1.8008270999998786;3796
562;1.803957299999638;3792
563;1.8069501999998465;3787
564;1.809960200000205;3783
565;1.8129569000002448;3778
566;1.8158623999997872;3774
567;1.8189609000000928;3769
568;1.8218802000001233;3764
569;1.8249555000002147;3758
570;1.8279586999997264;3753
571;1.830960899999809;3747
572;1.8339601999996376;3742
573;1.8369555999997829;3736
574;1.839962199999718;3730
575;1.8429555000002438;3723
576;1.8457484000000477;3718
577;1.8489639999997962;3712
578;1.8519585000003644;3705
579;1.8549649999995381;3699
580;1.8579670999997688;3692
581;1.8609128999996756;3685
582;1.8637725999997201;3680
583;1.866786100000354;3673
584;1.8688301000001957;3667
585;1.8718096000002333;3662
586;1.8748359000001074;3654
587;1.8778143999998065;3647
588;1.8808292000003348;3640
589;1.8840507000004436;3631
590;1.887067399999978;3623
591;1.8911080999996557;3615
592;1.8940856999997777;3606
593;1.8968802999997934;3598
594;1.900072000000364;3590
595;1.9030855999999403;3581
596;1.9066874999998618;3571
597;1.9098568999997951;3563
598;1.9128481999996438;3554
599;1.9158009000002494;3545
600;1.9188649999996414;3537
601;1.9219420999997965;3528
602;1.9248933999997462;3519
603;1.9278551999996125;3510
604;1.9308671999997387;3501
605;1.9338686999999481;3491
606;1.9368649999996705;3481
607;1.9398738999998386;3472
608;1.9428657999997085;3463
609;1.9458623000000443;3454
610;1.9488686000004236;3444
611;1.9518293999999514;3434
612;1.9548785999995744;3424
613;1.9578653999997186;3414
614;1.960875699999633;3404
615;1.963864299999841;3394
616;1.9668792000002213;3384
617;1.9698687999998583;3373
618;1.97284049999962;3363
619;1.9758672999996634;3354
620;1.9788709000004019;3342
621;1.981872199999998;3332
622;1.9848793000001024;3321
623;1.9878650999999081;3311
624;1.9908667999998215;3301
625;1.9939774000004036;3289
626;1.9969632000002093;3278
627;1.9997769000001426;3267
628;2.0028849999998783;3257
629;2.0056468000002496;3245
630;2.008981300000414;3233
631;2.011967200000072;3220
632;2.0146726000002673;3209
633;2.0179260000004433;3199
634;2.020894799999951;3187
635;2.0238902000000962;3176
636;2.0269674000001032;3163
637;2.0299599999998463;3151
638;2.032934799999566;3140
639;2.0359691000003295;3127
640;2.038633899999695;3115
641;2.0419715999996697;3105
642;2.044962900000428;3091
643;2.0476363999996465;3080
644;2.0496773000004396;3069
645;2.051570499999798;3061
646;2.053487999999561;3053
647;2.0555194999997184;3046
648;2.057476900000438;3037
649;2.0596260000002076;3030
650;2.0616228999997475;3020
651;2.0634816000001592;3011
652;2.0655020000003788;3004
653;2.067497699999876;2995
654;2.0695058999999674;2988
655;2.071550599999682;2979
656;2.0735132999998314;2970
657;2.0754957999997714;2961
658;2.077612400000362;2953
659;2.0796079000001555;2944
660;2.0826227999996263;2936
661;2.0845845000003465;2923
662;2.0865618999996514;2914
663;2.08861429999979;2906
664;2.0916297000003397;2897
665;2.093634199999542;2884
666;2.0956622000003335;2875
667;2.09762899999987;2867
668;2.0996359999999186;2858
669;2.1016551000002437;2849
670;2.1046932999997807;2841
671;2.1066750999998476;2828
672;2.1085384999996677;2819
673;2.1106824999997116;2811
674;2.1126666999998633;2802
675;2.114658999999847;2793
676;2.1166595000004236;2784
677;2.1186642000002394;2775
678;2.1206672999996954;2767
679;2.1227069999995365;2759
680;2.1246510000000853;2749
681;2.1265440999995917;2740
682;2.128614799999923;2732
683;2.130619999999908;2723
684;2.1336138999995455;2713
685;2.135488599999917;2701
686;2.137485199999901;2692
687;2.13956429999962;2683
688;2.141591999999946;2674
689;2.1450957999995808;2663
690;2.1479974000003494;2646
691;2.1510157000002437;2633
692;2.1538543999995454;2619
693;2.1566940000002432;2606
694;2.1598737000003894;2595
695;2.1628528999999617;2580
696;2.165847500000382;2567
697;2.16882059999989;2553
698;2.171860100000231;2540
699;2.174821100000372;2525
700;2.17778780000026;2512
701;2.1808227000001352;2498
702;2.1838919000001624;2484
703;2.1868641000000935;2469
704;2.1898842999999033;2455
705;2.19289420000041;2442
706;2.195895500000006;2428
707;2.198899799999708;2414
708;2.2018222999995487;2401
709;2.2048612999997204;2389
710;2.207796099999541;2375
711;2.2107992999999624;2361
712;2.2138199999999415;2347
713;2.21685669999988;2334
714;2.2199320999998235;2319
715;2.2229317999999694;2306
716;2.22594509999999;2293
717;2.228902400000152;2278
718;2.231929499999751;2266
