;time;amplitude
0;0.0028394000000844244;2432
1;0.005767500000729342;2432
2;0.00885999999991327;2433
3;0.012115000001358567;2434
4;0.014932100000805804;2434
5;0.01809980000143696;2435
6;0.021169499999814434;2435
7;0.02373950000037439;2436
8;0.026715300000432762;2436
9;0.02868740000121761;2437
10;0.030684500001370907;2437
11;0.03263320000041858;2437
12;0.03461340000103519;2438
13;0.03666410000005271;2438
14;0.038645300001007854;2438
15;0.04064930000095046;2438
16;0.04263760000139882;2439
17;0.044599200000448036;2439
18;0.04664770000090357;2439
19;0.049658300000373856;2439
20;0.05266440000013972;2440
21;0.054651800001011;2440
22;0.05661310000141384;2440
23;0.058625000001484295;2441
24;0.0606127999999444;2441
25;0.0626802000006137;2441
26;0.06463350000012724;2441
27;0.0666455999999016;2441
28;0.06964070000140055;2442
29;0.07171569999991334;2442
30;0.07472120000056748;2442
31;0.07670750000033877;2443
32;0.07969039999989036;2443
33;0.08167470000080357;2442
34;0.08468840000023192;2442
35;0.08669650000047113;2443
36;0.08966400000099384;2443
37;0.09167530000013357;2443
38;0.0936933000011777;2444
39;0.09578800000053889;2444
40;0.09872080000059213;2444
41;0.10072150000087277;2445
42;0.1037071000009746;2445
43;0.10565850000057253;2446
44;0.10867040000084671;2446
45;0.11067180000100052;2447
46;0.11269549999997253;2447
47;0.1146907000002102;2448
48;0.1167438000011316;2448
49;0.11973100000068371;2448
50;0.12268650000078196;2449
51;0.12578710000161664;2449
52;0.12876910000159114;2450
53;0.13178340000013122;2450
54;0.1347890000015468;2450
55;0.1377827000014804;2450
56;0.13973560000158614;2450
57;0.14270480000050156;2451
58;0.144718900000953;2451
59;0.14768120000007912;2451
60;0.14969920000112324;2452
61;0.15165500000148313;2452
62;0.15361380000103964;2452
63;0.15547130000049947;2452
64;0.15757530000155384;2453
65;0.1595952000006946;2453
66;0.16159030000017083;2453
67;0.16358860000036657;2453
68;0.1655960000007326;2453
69;0.16762160000143922;2453
70;0.16960580000159098;2454
71;0.17267630000060308;2454
72;0.17468830000143498;2454
73;0.17668899999989662;2454
74;0.1786843999998382;2454
75;0.18067990000054124;2454
76;0.1826667000004818;2455
77;0.18458230000032927;2455
78;0.18663670000023558;2455
79;0.189663200000723;2455
80;0.19163149999985762;2455
81;0.19363330000123824;2455
82;0.19562860000041837;2455
83;0.19763419999981124;2456
84;0.19966010000098322;2456
85;0.20166340000105265;2456
86;0.20360780000009981;2456
87;0.20666540000092937;2456
88;0.2086568000013358;2457
89;0.21064040000055684;2457
90;0.21259490000011283;2458
91;0.21450300000105926;2458
92;0.21660719999999856;2458
93;0.21880090000013297;2457
94;0.22172070000124222;2457
95;0.22397340000134136;2457
96;0.22668280000107188;2457
97;0.2286450000010518;2458
98;0.23168560000158323;2458
99;0.23468300000058662;2458
100;0.23672840000108408;2458
101;0.23890620000020135;2457
102;0.2418965000015305;2457
103;0.24468760000127077;2457
104;0.2477063000005728;2457
105;0.249706900000092;2457
106;0.25267820000044594;2457
107;0.2554782000006526;2457
108;0.2581266000015603;2457
109;0.260656000000381;2457
110;0.2626090000012482;2457
111;0.2656877000008535;2457
112;0.2676950000004581;2457
113;0.2707122000010713;2456
114;0.27358080000158225;2456
115;0.2767033000000083;2456
116;0.27870290000100795;2456
117;0.2816980000006879;2456
118;0.28476120000050287;2456
119;0.2877358000005188;2455
120;0.28954590000103053;2455
121;0.2927023000011104;2455
122;0.2957151000009617;2455
123;0.29772440000124334;2455
124;0.3007033000012598;2455
125;0.3037010000007285;2455
126;0.3067742000002909;2455
127;0.3096683000003395;2455
128;0.31168480000087584;2455
129;0.3136571000013646;2454
130;0.315653999999995;2454
131;0.3177052000010008;2454
132;0.31964270000025863;2454
133;0.3226220000015019;2454
134;0.32565360000080545;2453
135;0.32776470000135305;2453
136;0.3296594000003097;2453
137;0.3316517000002932;2453
138;0.3336546000009548;2453
139;0.3356597000001784;2453
140;0.33768050000071526;2452
141;0.3395516000000498;2452
142;0.3417085000000952;2452
143;0.3437205999998696;2452
144;0.34672780000073544;2452
145;0.3497027000012167;2452
146;0.35172220000094967;2451
147;0.35374140000021725;2451
148;0.3555260000011913;2451
149;0.3577500000010332;2451
150;0.3606257999999798;2451
151;0.36265840000123717;2451
152;0.36466220000147587;2451
153;0.36664610000116227;2450
154;0.3699828000007983;2450
155;0.37267220000103407;2450
156;0.37476490000153717;2450
157;0.37698009999985516;2450
158;0.37975490000098944;2449
159;0.3816993000000366;2449
160;0.3837192999999388;2449
161;0.3867227999999159;2449
162;0.3885846000011952;2449
163;0.3907857000012882;2449
164;0.3938484000009339;2449
165;0.3969334000012168;2448
166;0.4009709000001749;2447
167;0.4041966000004322;2447
168;0.4078693999999814;2447
169;0.410846800001309;2446
170;0.4138284000000567;2446
171;0.41661350000140374;2446
172;0.4198281000008137;2445
173;0.42262120000123105;2445
174;0.42602179999994405;2445
175;0.4289070000013453;2445
176;0.43192330000056245;2444
177;0.4348107000005257;2444
178;0.4378260000012233;2443
179;0.4406384000012622;2443
180;0.4438949000013963;2443
181;0.4468936000012036;2442
182;0.4497798000011244;2442
183;0.4517790000008972;2441
184;0.45473950000086916;2441
185;0.4566893999999593;2441
186;0.4603013000014471;2440
187;0.46447940000143717;2440
188;0.46811150000030466;2439
189;0.4714012000004004;2439
190;0.47378070000013395;2439
191;0.47713500000099884;2438
192;0.4799849000009999;2438
193;0.4827761000015016;2437
194;0.484868200001074;2437
195;0.48775340000065626;2436
196;0.48968020000029355;2436
197;0.49159270000018296;2435
198;0.4940388000013627;2435
199;0.49793010000030336;2434
200;0.5010369999999966;2433
201;0.5038660000009259;2432
202;0.5067321000005904;2432
203;0.5098383000004105;2432
204;0.512826900001528;2431
205;0.5157823000008648;2431
206;0.5189605000014126;2430
207;0.5219160000015108;2430
208;0.5246710000010353;2430
209;0.5266167999998288;2430
210;0.5298115000005055;2429
211;0.5326437000003352;2429
212;0.5357691000008344;2428
213;0.5388545000005251;2427
214;0.5416440000008151;2427
215;0.544915200000105;2427
216;0.5478978000010102;2426
217;0.5509283999999752;2426
218;0.5539309000014327;2425
219;0.5566004000011162;2425
220;0.5587522000005265;2425
221;0.5623071000009077;2425
222;0.5662126000006538;2424
223;0.5700397000000521;2424
224;0.5738459000003786;2423
225;0.5768492000006518;2422
226;0.5801394999998593;2422
227;0.5838344000003417;2421
228;0.5871074000006047;2421
229;0.5907557999998971;2420
230;0.5942267000009451;2419
231;0.5980933999999252;2418
232;0.6012715000015305;2417
233;0.6051047000000835;2417
234;0.6077538000008644;2416
235;0.6109696000003169;2415
236;0.6140967999999702;2415
237;0.6171993000007205;2414
238;0.6208553000014945;2414
239;0.6240035999999236;2413
240;0.6271669000016118;2413
241;0.6299845000012283;2412
242;0.6327926000012667;2412
243;0.6348500000003696;2411
244;0.6377556000006734;2411
245;0.6406864000000496;2411
246;0.6437417000015557;2410
247;0.6468383999999787;2410
248;0.6499850000000151;2410
249;0.6528795000012906;2410
250;0.6556005000002187;2409
251;0.6578774000008707;2409
252;0.6606578999999329;2409
253;0.6626312000007601;2409
254;0.6646164000012504;2408
255;0.6665321000000404;2408
256;0.6685183000008692;2408
257;0.670587800001158;2408
258;0.6725061000015558;2408
259;0.6745688000009977;2408
260;0.6765425000012328;2407
261;0.678455600000234;2407
262;0.6804851000015333;2407
263;0.6824691000001621;2407
264;0.6844591000008222;2407
265;0.6864819000002171;2406
266;0.6884730000001582;2406
267;0.6906298000012612;2406
268;0.6924831000014819;2405
269;0.6945485000014742;2405
270;0.6965592000015022;2405
271;0.6984953999999561;2404
272;0.7005078000001959;2404
273;0.7025104000003921;2404
274;0.704482300001473;2403
275;0.7065821000014694;2403
276;0.708696300000156;2403
277;0.7104859999999462;2403
278;0.712590300001466;2403
279;0.7145143000016105;2403
280;0.7165104000014253;2403
281;0.7185106000015367;2403
282;0.7204879000000801;2403
283;0.7225331000008737;2402
284;0.7258029000004171;2402
285;0.727643000000171;2402
286;0.7296899000011763;2401
287;0.7316985000015848;2401
288;0.7335775000010472;2401
289;0.7358510000012757;2401
290;0.737530100001095;2402
291;0.7396487000005436;2401
292;0.7415948000016215;2401
293;0.7446662000002107;2401
294;0.7467293000008794;2401
295;0.7496122000011383;2400
296;0.7516081000012491;2400
297;0.7534694000005402;2400
298;0.755496800000401;2400
299;0.7590298000013718;2400
300;0.7618655000005674;2400
301;0.7645625000004657;2401
302;0.7666162000004988;2401
303;0.7685946000001422;2401
304;0.7705780000014784;2401
305;0.7725438000015856;2400
306;0.7756834000010713;2400
307;0.7775133000013739;2401
308;0.7796248000013293;2401
309;0.7816124000000855;2400
310;0.7835012000014103;2400
311;0.7855197000008047;2400
312;0.7875030000013794;2400
313;0.7900172000008752;2400
314;0.7926009000002523;2400
315;0.79460250000011;2400
316;0.7965835000013612;2400
317;0.7984754000008252;2400
318;0.8004998000014893;2400
319;0.8025112000013905;2400
320;0.8045181000015873;2400
321;0.8065918000011152;2400
322;0.8085136999998213;2400
323;0.8105031000013696;2400
324;0.8125780999998824;2401
325;0.8145307000013418;2401
326;0.8165543000013713;2401
327;0.818505000001096;2401
328;0.8205107000012504;2401
329;0.822718100000202;2401
330;0.8246343999999226;2402
331;0.8266524000009667;2402
332;0.8286320000006526;2402
333;0.830612800000381;2402
334;0.8325230999998894;2402
335;0.8345732000016142;2401
336;0.8364975000004051;2401
337;0.8387945000013133;2401
338;0.8405413000000408;2401
339;0.8425328000012087;2401
340;0.8446579000010388;2401
341;0.8465973000002123;2401
342;0.8485055000001012;2401
343;0.850501400000212;2401
344;0.8524783000011666;2401
345;0.8545047000006889;2401
346;0.8565397000002122;2402
347;0.8586536000002525;2402
348;0.8606502000002365;2402
349;0.8625752000007196;2402
350;0.8645702000012534;2402
351;0.8664963000010175;2402
352;0.8685169000000315;2403
353;0.8704730000008567;2402
354;0.8727150000013353;2403
355;0.8755902000011702;2403
356;0.8775573000002623;2403
357;0.8796892000009393;2403
358;0.881460500000685;2404
359;0.8834835000016028;2403
360;0.8855075000010402;2403
361;0.8874953000013193;2403
362;0.8896381000013207;2404
363;0.8916176000002451;2404
364;0.8935347000006004;2404
365;0.8955768000014359;2404
366;0.8975104000001011;2404
367;0.8995141000013973;2404
368;0.9015224000013404;2404
369;0.9034652999998798;2404
370;0.9054927000015596;2405
371;0.9076226000015595;2405
372;0.9096611000004486;2406
373;0.9115415000014764;2406
374;0.9136944000001677;2406
375;0.9156120000006922;2406
376;0.9176043000006757;2407
377;0.9195548000006966;2407
378;0.9215687000014441;2407
379;0.9237219000006007;2407
380;0.9255253999999695;2407
381;0.9275828999998339;2408
382;0.9295716000015091;2408
383;0.9315127000008943;2408
384;0.9335230000015144;2409
385;0.9355443000004016;2409
386;0.9375748000002204;2409
387;0.939493500000026;2409
388;0.9416547000000719;2409
389;0.943553700000848;2410
390;0.9455835000007937;2410
391;0.9475722000006499;2410
392;0.9494881999999052;2410
393;0.9514577000009012;2410
394;0.9534618000016053;2410
395;0.9554990000015096;2410
396;0.9574940000002243;2410
397;0.9595838000004733;2411
398;0.9615553000003274;2411
399;0.9635556000012002;2411
400;0.9655642000016087;2411
401;0.9675404999998136;2411
402;0.9695170000013604;2411
403;0.9715251000015996;2412
404;0.974536600000647;2412
405;0.9765953000005538;2412
406;0.9786505000010948;2412
407;0.980580600000394;2412
408;0.9825258000000758;2412
409;0.9845065000008617;2413
410;0.9864758000003349;2413
411;0.9885858000016015;2413
412;0.9915446000013617;2413
413;0.993465900000956;2413
414;0.9955110000009881;2414
415;0.9974813000007998;2414
416;0.999473300000318;2414
417;1.0015288000013243;2414
418;1.0035120000011375;2414
419;1.005492400001458;2415
420;1.0075074000014865;2415
421;1.0094683000006626;2415
422;1.011461699999927;2415
423;1.0134632000008423;2416
424;1.0154472000012902;2416
425;1.0174526999999216;2416
426;1.0194547000010061;2417
427;1.0214618999998493;2417
428;1.0235386000003928;2417
429;1.0255379999998695;2418
430;1.0275538000005326;2418
431;1.0295342000008532;2418
432;1.0314963000000716;2419
433;1.0335506000010355;2419
434;1.0355608000008942;2419
435;1.0375701000011759;2420
436;1.0395587000002706;2420
437;1.041623900000559;2420
438;1.04360860000088;2420
439;1.045570400001452;2421
440;1.047583500001565;2421
441;1.0496010000006208;2421
442;1.051649200000611;2421
443;1.0535854999998264;2421
444;1.0555134000005637;2422
445;1.057499700000335;2423
446;1.0594938000012917;2423
447;1.0615084000000934;2423
448;1.0634976000001188;2424
449;1.0655507999999827;2424
450;1.067463700001099;2424
451;1.0695071999998618;2424
452;1.0714802000002237;2425
453;1.0735519000008935;2425
454;1.07549680000011;2426
455;1.077558000000863;2425
456;1.0795474000005925;2425
457;1.0815008000008675;2426
458;1.08355770000162;2426
459;1.0855050000009214;2427
460;1.0875540000015462;2427
461;1.089621500001158;2427
462;1.0915504000004148;2427
463;1.0935708000015438;2427
464;1.095550000000003;2428
465;1.0975040000012086;2428
466;1.099549399999887;2429
467;1.1015212000002066;2430
468;1.1035114000005706;2430
469;1.105516700001317;2430
470;1.1077166000013676;2431
471;1.1096462000004976;2431
472;1.1116383000007772;2431
473;1.1135422000006656;2432
474;1.1155577999998059;2432
475;1.1175158000005467;2433
476;1.119525900001463;2433
477;1.1215189000013197;2433
478;1.1235372000010102;2434
479;1.1255240999998932;2434
480;1.1275253000003431;2434
481;1.1295304000013857;2435
482;1.131518000000142;2435
483;1.1335218000003806;2435
484;1.1356004000008397;2435
485;1.1375094000013632;2435
486;1.1395059000005858;2436
487;1.1414782000010746;2436
488;1.1434789000013552;2436
489;1.1454579000001104;2436
490;1.147455300000729;2437
491;1.1494559000002482;2437
492;1.151458400001502;2437
493;1.1534796000014467;2438
494;1.1554910000013479;2438
495;1.1574795000015001;2438
496;1.1594581000008475;2438
497;1.1614652000007482;2439
498;1.1634599000008166;2439
499;1.165461900000082;2439
500;1.1674569000006159;2440
501;1.169462100000601;2440
502;1.1714714000008826;2440
503;1.1734647000012046;2440
504;1.1755084000014904;2440
505;1.1775217000013072;2440
506;1.1795681000003242;2440
507;1.1815798000006907;2440
508;1.1835398000002897;2441
509;1.1855654000009963;2441
510;1.1876109000004362;2442
511;1.1895672000009654;2442
512;1.1915024999998423;2442
513;1.1935588000014832;2443
514;1.1955548000005365;2443
515;1.1975190000011935;2444
516;1.1995421000010538;2445
517;1.2015331000002334;2445
518;1.2035237000000052;2445
519;1.2054800000005343;2445
520;1.2075230999998894;2446
521;1.2095319000000018;2446
522;1.2115137000000686;2447
523;1.2135177000000112;2447
524;1.2154846000012185;2447
525;1.217523600000277;2448
526;1.2196713000012096;2448
527;1.2217021000014938;2448
528;1.2236705000013899;2449
529;1.22571870000138;2449
530;1.2277212000008149;2449
531;1.2297299000001658;2450
532;1.2316479000000982;2450
533;1.2347163000013097;2450
534;1.2377943999999843;2450
535;1.2396376000015152;2451
536;1.2418119000012666;2451
537;1.2448292000008223;2451
538;1.247795600000245;2452
539;1.2506192000000738;2452
540;1.2538265000002866;2453
541;1.2568069000008109;2453
542;1.259829600001467;2453
543;1.2627909000002546;2453
544;1.2657697000013286;2454
545;1.2678124000012758;2454
546;1.270824500001254;2454
547;1.2738164000002143;2454
548;1.2772872000005009;2454
549;1.2812967999998364;2454
550;1.285325599999851;2454
551;1.2890643000009732;2455
552;1.2922003000003315;2455
553;1.295087100001183;2455
554;1.2976953000015783;2456
555;1.3010669000013877;2456
556;1.3040655000004335;2456
557;1.307068000000072;2456
558;1.3100442000013572;2456
559;1.312999800000398;2456
560;1.315629100001388;2457
561;1.3178521999998338;2457
562;1.3207947999999305;2456
563;1.3242425000007643;2457
564;1.328186700000515;2457
565;1.331867599999896;2457
566;1.334859000000506;2457
567;1.3378584000001865;2457
568;1.3409124000008887;2457
569;1.3440286000004562;2458
570;1.346976500000892;2458
571;1.350062200001048;2458
572;1.353054000001066;2458
573;1.3557276999999885;2458
574;1.359039800001483;2458
575;1.3619357000006858;2458
576;1.3649093000003631;2458
577;1.3680261000008613;2458
578;1.370897300001161;2457
579;1.3740542000014102;2457
580;1.3769439000006969;2457
581;1.3800655000013649;2457
582;1.383002000000488;2457
583;1.3858710000004066;2457
584;1.3888622000013129;2457
585;1.3919647000002442;2456
586;1.3950323000008211;2456
587;1.3979486000007455;2456
588;1.4009906999999657;2456
589;1.4038434000012785;2456
590;1.4068193000002793;2455
591;1.4098398000005545;2455
592;1.4127965000006952;2455
593;1.4158068000015192;2454
594;1.418826799999806;2454
595;1.4218218000005436;2454
596;1.424644900000203;2454
597;1.428236100000504;2453
598;1.4321724000001268;2453
599;1.435224400000152;2453
600;1.4389240000000427;2453
601;1.443181900000127;2452
602;1.4471298000007664;2452
603;1.4513204000013502;2452
604;1.4549428999998781;2452
605;1.4582754000002751;2452
606;1.4622565000008763;2452
607;1.46619500000088;2451
608;1.4702809999998863;2451
609;1.4741497000013624;2451
610;1.4772315000009257;2450
611;1.4809292999998434;2450
612;1.484074200001487;2449
613;1.4867554000011296;2449
614;1.4899807000001601;2449
615;1.4929809000004752;2448
616;1.4960115000012593;2448
617;1.4988592000008794;2448
618;1.5017951999998331;2447
619;1.5048387000006187;2447
620;1.508224400000472;2446
621;1.512342100000751;2446
622;1.5162302000007912;2446
623;1.520865300000878;2445
624;1.5258082000000286;2445
625;1.5308942000010575;2445
626;1.5354361999998218;2444
627;1.5396305000012944;2444
628;1.5433186999998725;2443
629;1.5475764000002528;2442
630;1.5521461000007548;2442
631;1.5553772000002937;2442
632;1.559326399999918;2441
633;1.5623518000011245;2441
634;1.5662494000007428;2440
635;1.5704212000000553;2440
636;1.5738608000010572;2439
637;1.577300599999944;2439
638;1.5812979000002088;2438
639;1.5852721000010206;2438
640;1.5890585000015562;2437
641;1.5921314000006532;2436
642;1.5951779000006354;2436
643;1.599227200000314;2435
644;1.6031672000008257;2434
645;1.6058344000011857;2433
646;1.6088323000003584;2433
647;1.611831500000335;2432
648;1.6148429000004398;2432
649;1.6176640000012412;2431
650;1.6195783000002848;2431
651;1.6215750999999727;2430
652;1.6235641000002943;2430
653;1.6258277000015369;2430
654;1.6288111000012577;2430
655;1.6317995000008523;2429
656;1.634894599999825;2429
657;1.6377107000007527;2428
658;1.6409590000002936;2428
659;1.6440486000010424;2427
660;1.6468695000003208;2427
661;1.6497572000007494;2426
662;1.652978300000541;2426
663;1.6555668000000878;2426
664;1.6577369000006001;2425
665;1.6597058000006655;2425
666;1.6628274000013334;2425
667;1.6660767000012129;2424
668;1.6690975000001345;2424
669;1.6719705000014073;2424
670;1.674901200000022;2424
671;1.677896500001225;2423
672;1.68090310000116;2423
673;1.6839345000007597;2422
674;1.6869296000004397;2421
675;1.6898049999999785;2421
676;1.6929238000011537;2420
677;1.6959228000014264;2420
678;1.6989313000012771;2419
679;1.7019274000012956;2419
680;1.7049053000009735;2418
681;1.7079189000014594;2418
682;1.710925600000337;2417
683;1.7139200000001438;2416
684;1.7169463000009273;2416
685;1.719910499999969;2415
686;1.7226909000000887;2415
687;1.7259214000005159;2415
688;1.7289039000006596;2414
689;1.731928600000174;2413
690;1.7349133000006987;2413
691;1.7379275000002963;2413
692;1.7409096000010322;2412
693;1.7439091000014741;2412
694;1.7469175000005635;2411
695;1.7499102000001585;2410
696;1.7529162999999244;2410
697;1.7557784000000538;2410
698;1.7589185000015277;2410
699;1.761923600000955;2410
700;1.7649130000008881;2409
701;1.7676848999999493;2409
702;1.7709147000005032;2408
703;1.7740203000012116;2408
704;1.777011300000595;2408
705;1.7800172000006569;2408
706;1.7829455999999482;2407
707;1.7860107000014978;2407
708;1.7887418999998772;2407
709;1.792017499999929;2406
710;1.7950213000003714;2406
711;1.7980099000014889;2406
712;1.801013400001466;2406
713;1.8040205000015703;2405
714;1.8070354999999836;2405
715;1.8100205000009737;2404
