;time;amplitude
0;0.00325299999985873;2366
1;0.007650399999874935;2367
2;0.011710899999343383;2367
3;0.015701399999670684;2368
4;0.019318599999678554;2369
5;0.023342999999840686;2369
6;0.027816299999358307;2369
7;0.03281259999948816;2371
8;0.03736549999939598;2372
9;0.04177179999987857;2372
10;0.0457325999996101;2372
11;0.049664799999845854;2372
12;0.0537930000000415;2373
13;0.05768459999944753;2373
14;0.061795799999345036;2374
15;0.06597839999994903;2374
16;0.06974869999976363;2375
17;0.07319649999953981;2376
18;0.07781319999958214;2376
19;0.08269949999976234;2377
20;0.08662959999946906;2378
21;0.0902511999993294;2378
22;0.09474109999973734;2379
23;0.09824039999966772;2379
24;0.10269269999935204;2380
25;0.10619979999955831;2380
26;0.11068409999916184;2381
27;0.11422449999918172;2382
28;0.11866319999990083;2383
29;0.12264739999955054;2384
30;0.12664159999985714;2384
31;0.13064589999976306;2385
32;0.13469879999956902;2385
33;0.13867219999974623;2386
34;0.14275329999964015;2387
35;0.14711929999975837;2387
36;0.1506199999994351;2387
37;0.15467749999970692;2388
38;0.1586312999997972;2389
39;0.1622245999997176;2389
40;0.16560929999923246;2390
41;0.16960149999977148;2390
42;0.17329209999934392;2391
43;0.17648379999991448;2391
44;0.18051099999956932;2392
45;0.1845456999999442;2392
46;0.18846819999998843;2392
47;0.19156159999965894;2393
48;0.195634799999425;2394
49;0.19962329999998474;2394
50;0.20363599999927828;2395
51;0.20720229999915318;2395
52;0.2116673999998966;2396
53;0.2155704999995578;2397
54;0.2196243999997023;2397
55;0.22260519999963435;2398
56;0.22665889999916544;2398
57;0.23062509999999747;2399
58;0.2346321999993961;2400
59;0.23810519999915414;2400
60;0.2411190999991959;2401
61;0.24410639999950945;2402
62;0.2470454999993308;2402
63;0.2516796999998405;2403
64;0.2550446999994165;2404
65;0.258574999999837;2404
66;0.262551099999655;2404
67;0.26655379999920115;2405
68;0.27057609999974375;2405
69;0.27450279999993654;2406
70;0.2785668999995323;2407
71;0.2825775999999678;2407
72;0.2865846999993664;2408
73;0.29016239999964455;2409
74;0.2945829000000231;2409
75;0.2985542999995232;2410
76;0.30256269999972574;2410
77;0.30614149999928486;2411
78;0.3094991999996637;2412
79;0.3135753999995359;2411
80;0.3175669999991442;2412
81;0.32153870000001916;2412
82;0.32450859999971726;2413
83;0.3285610999992059;2414
84;0.3325835999994524;2414
85;0.33652339999935066;2414
86;0.3401609999991706;2415
87;0.3445745999997598;2415
88;0.348559999999452;2416
89;0.3525829000000158;2416
90;0.3561552999999549;2417
91;0.3605762999995932;2418
92;0.3644922999992559;2418
93;0.3685822999996162;2418
94;0.37257169999975304;2419
95;0.3765739999998914;2419
96;0.3795038999996905;2419
97;0.3835726999996041;2420
98;0.3875810999998066;2420
99;0.3915817999995852;2421
100;0.39501369999925373;2421
101;0.39800819999982195;2421
102;0.4015217999995002;2422
103;0.4056448999999702;2422
104;0.4093083999996452;2423
105;0.41250229999968724;2423
106;0.41649909999978263;2424
107;0.42054429999916465;2424
108;0.4243646999993871;2425
109;0.4281842999998844;2426
110;0.4311418999996022;2427
111;0.43534679999993386;2426
112;0.4391390999999203;2427
113;0.44252359999973123;2428
114;0.4466186999998172;2428
115;0.4505543999994188;2428
116;0.4545667999991565;2429
117;0.4574884999992719;2430
118;0.46158289999948465;2431
119;0.46556239999972604;2431
120;0.46960739999940415;2432
121;0.47316159999991214;2432
122;0.476494300000013;2433
123;0.4805819999992309;2433
124;0.4845516999994288;2433
125;0.4885387999993327;2434
126;0.4915069999997286;2434
127;0.4955683999996836;2435
128;0.49953959999947983;2435
129;0.5031730999999127;2435
130;0.5060656999994535;2435
131;0.5094972999995662;2435
132;0.5135626999999658;2436
133;0.5175841000000219;2436
134;0.5215329999991809;2437
135;0.5244840999994267;2437
136;0.5285768999992797;2438
137;0.5325921999992715;2438
138;0.5361077999996269;2439
139;0.5389221999994334;2439
140;0.5419509999992442;2440
141;0.5448831999992763;2440
142;0.5468747999993866;2441
143;0.548758199999611;2441
144;0.5509306999992987;2441
145;0.5529460999996445;2442
146;0.5557967999993707;2442
147;0.5590371999996933;2443
148;0.5619815000000017;2443
149;0.5648152999992817;2444
150;0.566928100000041;2444
151;0.5699199999999109;2445
152;0.5730016999996224;2445
153;0.5758450999992419;2446
154;0.5778639999998632;2446
155;0.5798819999999978;2447
156;0.5829617999997936;2447
157;0.5848254999991696;2447
158;0.5868952999999237;2447
159;0.5888702999991438;2448
160;0.5908965999997235;2448
161;0.5928906999997707;2448
162;0.5948873999996067;2448
163;0.5968773999993573;2448
164;0.599975799999811;2449
165;0.6029754999999568;2449
166;0.6049181999997018;2450
167;0.6069300999997722;2450
168;0.6089269999993121;2450
169;0.6109257999996771;2450
170;0.6129275999992387;2451
171;0.6149430999994365;2451
172;0.6169391999992513;2451
173;0.6199823999995715;2452
174;0.622870299999704;2452
175;0.625877199999195;2452
176;0.62788239999918;2453
177;0.6298001999994085;2453
178;0.631777399999919;2453
179;0.6337948000000324;2453
180;0.63581079999949;2453
181;0.6378545999996277;2453
182;0.6410151999998561;2453
183;0.6443821999991997;2454
184;0.6472965999992084;2455
185;0.650189599999976;2455
186;0.6531788999991477;2456
187;0.6560934999997698;2457
188;0.6590835999995761;2457
189;0.6621167999992394;2457
190;0.6653217999992194;2457
191;0.6694310999992013;2458
192;0.6734041999998226;2458
193;0.6774794999992082;2459
194;0.6814763999991555;2460
195;0.685822299999927;2460
196;0.6904621999992742;2460
197;0.6955853999997998;2461
198;0.6995995999996012;2462
199;0.7035861999993358;2462
200;0.7071640999993178;2462
201;0.7103387999995903;2463
202;0.7143381999994745;2464
203;0.7172776999996131;2465
204;0.720299999999952;2465
205;0.7230910999996922;2465
206;0.7264050999992833;2465
207;0.7304337999994459;2466
208;0.7345538999998098;2466
209;0.7385554999991655;2468
210;0.7414754999999786;2468
211;0.7455606999992597;2468
212;0.7494752999991761;2468
213;0.7535294999997859;2469
214;0.7574950999996872;2469
215;0.7615570999996635;2470
216;0.7655379999996512;2470
217;0.7695654999997714;2470
218;0.7723511999993207;2471
219;0.776563299999907;2471
220;0.7805314999995971;2472
221;0.7845486999995046;2472
222;0.7885892999993303;2472
223;0.7914760999992723;2472
224;0.7955375999999887;2473
225;0.799432999999226;2473
226;0.8029693999997107;2474
227;0.805973499999709;2474
228;0.8095306999994136;2474
229;0.8135417999992569;2474
230;0.8175212999994983;2475
231;0.8215286999993623;2476
232;0.8244795999999042;2476
233;0.8285311999998157;2476
234;0.8325373999996373;2477
235;0.8354690999995;2478
236;0.8381825999995272;2478
237;0.841518699999142;2478
238;0.8455231999996613;2479
239;0.8484883999999511;2479
240;0.8512193999995361;2480
241;0.8544894999995449;2480
242;0.8574700999997731;2480
243;0.8615585999996256;2480
244;0.8651408999994601;2481
245;0.8695711999998821;2481
246;0.8730381999994279;2482
247;0.8765046999997139;2482
248;0.8806122999994841;2482
249;0.8845411999991484;2482
250;0.8885635999995429;2483
251;0.8913385999994716;2483
252;0.8955409999998665;2483
253;0.8984914999991815;2484
254;0.902502199999617;2484
255;0.9061471999993955;2484
256;0.9095668999998452;2485
257;0.9135769999993499;2485
258;0.9175151999997979;2486
259;0.9214879999999539;2486
260;0.924221999999645;2486
261;0.928552800000034;2487
262;0.9325444999994943;2487
263;0.9365401999993992;2487
264;0.9400763999992705;2487
265;0.9435362999993231;2488
266;0.9475277999999889;2488
267;0.9514523999996527;2488
268;0.9556088999997883;2489
269;0.9595607999999629;2489
270;0.963543099999697;2489
271;0.9674998000000414;2490
272;0.9711487999993551;2490
273;0.9745304999996733;2490
274;0.9773529999993116;2491
275;0.9815590999996857;2491
276;0.9853037999992011;2490
277;0.9891160999995918;2491
278;0.9924890999991476;2491
279;0.9954972999994425;2491
280;0.9994182999998884;2491
281;1.0035582000000431;2491
282;1.007494399999814;2491
283;1.0115713999994114;2491
284;1.0155477999996947;2491
285;1.019312099999297;2491
286;1.0231378999997105;2492
287;1.0275887999996485;2492
288;1.0315392999991673;2493
289;1.0344997999991392;2493
290;1.0373217999995177;2493
291;1.0415539999994508;2493
292;1.045550199999525;2493
293;1.0490618999992876;2494
294;1.0525185999995301;2493
295;1.056118599999536;2494
296;1.0605967999999848;2494
297;1.064093399999365;2495
298;1.0674790999992183;2495
299;1.0701133999991725;2495
300;1.0730276999993293;2495
301;1.076214899999286;2496
302;1.0792185000000245;2496
303;1.0822307999997065;2496
304;1.0852648000000045;2496
305;1.0882701000000452;2496
306;1.0910722999997233;2496
307;1.0942469999999958;2496
308;1.0971627999997509;2496
309;1.1001510999994935;2497
310;1.1032484999996086;2497
311;1.1060557999999219;2497
312;1.1092462999995405;2497
313;1.112154599999485;2497
314;1.114818899999591;2497
315;1.11708279999948;2497
316;1.1200300000000425;2497
317;1.1231053999999858;2497
318;1.126024099999995;2497
319;1.1288677999991705;2497
320;1.132014299999355;2497
321;1.1356181999999535;2498
322;1.1391876999996384;2498
323;1.142312299999503;2498
324;1.1465166999996654;2498
325;1.150494599999547;2498
326;1.1544971999992413;2499
327;1.1576542999991943;2499
328;1.1603734000000259;2499
329;1.1631829999996626;2499
330;1.1662659999992684;2499
331;1.1692632999993293;2499
332;1.1721740999992107;2499
333;1.1752072999997836;2499
334;1.1781587999994372;2499
335;1.1812376999996559;2499
336;1.1842623999991702;2499
337;1.1872805999992124;2499
338;1.1902778999992734;2499
339;1.1932435999997324;2500
340;1.1962443999991592;2500
341;1.1992442999999184;2500
342;1.2022495999999592;2500
343;1.2049425999994128;2500
344;1.2072080999996615;2501
345;1.210195699999531;2501
346;1.2131997999995292;2501
347;1.2165937999998278;2501
348;1.2200418999991598;2501
349;1.2229330999998638;2501
350;1.2265506999992795;2501
351;1.230501899999581;2501
352;1.2345283999993626;2501
353;1.2385881000000154;2501
354;1.2414904999995997;2501
355;1.244437399999697;2501
356;1.247245099999418;2501
357;1.2502394999992248;2500
358;1.2532380999991801;2501
359;1.2558924999993906;2501
360;1.25810249999995;2501
361;1.2610212999998112;2501
362;1.2640057999997225;2501
363;1.2670824999995602;2501
364;1.2703573999997388;2501
365;1.2729435999999623;2501
366;1.2764567999993233;2501
367;1.2805131999994046;2500
368;1.2845315999993545;2501
369;1.2885481999992408;2500
370;1.2920279999998456;2500
371;1.2954465999991953;2500
372;1.2993427999999767;2500
373;1.302430199999435;2500
374;1.3059868999998798;2500
375;1.3094759999994494;2500
376;1.3135032999998657;2500
377;1.3175377999996272;2500
378;1.32108369999969;2501
379;1.3245192999993378;2500
380;1.3285005999996429;2500
381;1.3324978999999075;2500
382;1.3364476999995532;2500
383;1.3389689999994516;2500
384;1.3424575999997614;2499
385;1.3465023999997356;2500
386;1.3505374999995183;2500
387;1.3540203999991718;2500
388;1.3574769999995624;2500
389;1.3615023999991536;2500
390;1.3655346999994435;2500
391;1.369508799999494;2500
392;1.3732783999994354;2500
393;1.377503099999558;2501
394;1.3815087999992102;2501
395;1.385518599999159;2501
396;1.389044599999579;2501
397;1.392329499999505;2500
398;1.3954452999996647;2500
399;1.3984435999991547;2500
400;1.4008822999994663;2500
401;1.4029072999992422;2501
402;1.4059558999997535;2501
403;1.409131499999603;2501
404;1.412134199999855;2501
405;1.4150569999992513;2501
406;1.418155299999853;2501
407;1.4216962000000422;2501
408;1.424414799999795;2502
409;1.4283276999994996;2501
410;1.43265749999955;2502
411;1.4365367999998853;2502
412;1.4389776999996684;2502
413;1.4422483999996984;2502
414;1.4452432999996745;2502
415;1.4482324999999037;2501
416;1.451280699999188;2501
417;1.454306199999337;2501
418;1.4572797999999239;2501
419;1.460289399999965;2501
420;1.463297799999964;2501
421;1.4662841999997909;2501
422;1.468966399999772;2501
423;1.4720479999996314;2501
424;1.4752709999993385;2501
425;1.4782711999996536;2501
426;1.4812918999996327;2501
427;1.4842205999993894;2501
428;1.4872928999993746;2500
429;1.4903009999998176;2501
430;1.4932879999996658;2501
431;1.496292199999516;2500
432;1.4992014999997991;2500
433;1.5022566999996343;2500
434;1.5052812999992966;2500
435;1.508250699999735;2500
436;1.511226099999476;2500
437;1.5142418999994334;2499
438;1.5172475999997914;2499
439;1.520249899999726;2500
440;1.523247299999639;2500
441;1.526242099999763;2500
442;1.5292115999991438;2500
443;1.531839699999182;2500
444;1.5352454999992915;2500
445;1.5382235999995828;2500
446;1.541249599999901;2500
447;1.5442497999993066;2500
448;1.5472229999995761;2500
449;1.5502434999998513;2500
450;1.5532432999998491;2500
451;1.556218099999569;2500
452;1.5592459999998027;2501
453;1.5622458999996525;2500
454;1.565239499999734;2500
455;1.5682435999997324;2500
456;1.5712470999997095;2500
457;1.5742442999999184;2500
458;1.5772116999996797;2500
459;1.5811048999994455;2500
460;1.58425139999963;2500
461;1.5872434999992038;2501
462;1.5902395999992223;2500
463;1.5929616999992504;2500
464;1.5962498999997479;2500
465;1.599240199999258;2500
466;1.602219200000036;2500
467;1.6052589999999327;2500
468;1.608228699999927;2500
469;1.6112241999999242;2500
470;1.6142464999993535;2500
471;1.6172483999998803;2500
472;1.6202432999998564;2500
473;1.6232416999991983;2500
474;1.6259969999991881;2500
475;1.6292536999999356;2500
476;1.6322442999999112;2500
477;1.6352431999994224;2500
478;1.6382176999995863;2500
479;1.6412713999998232;2500
480;1.6442458999999872;2501
481;1.6472386999994342;2501
482;1.6502455999998347;2501
483;1.6532486999994944;2501
484;1.6561070999996446;2501
485;1.6592379999992772;2501
486;1.66222899999957;2501
487;1.6652414000000135;2501
488;1.6682543999995687;2501
489;1.6712488999992274;2501
490;1.6742514999996274;2501
491;1.677248399999371;2501
492;1.6802494999992632;2501
493;1.6832383999999365;2500
494;1.6862301999999545;2501
495;1.6890206999996735;2501
496;1.692248099999233;2501
497;1.695244399999865;2501
498;1.6982453999999052;2500
499;1.7012489999997342;2500
500;1.7038990999999442;2501
501;1.707271799999944;2501
502;1.7102523999992627;2500
503;1.7132520999994085;2500
504;1.7162492999996175;2500
505;1.7192252999993798;2500
506;1.7219304999998712;2500
507;1.7252467999996952;2500
508;1.728244499999164;2500
509;1.731243799999902;2500
510;1.734245299999202;2500
511;1.7370310999995127;2500
512;1.7401707999997598;2501
513;1.7429292999995596;2500
514;1.7459229999994932;2501
515;1.7489729999997508;2501
516;1.7519164999994246;2501
517;1.754906299999675;2501
518;1.7581384999994043;2501
519;1.7609984999999142;2501
520;1.764041499999621;2501
521;1.7669888000000356;2501
522;1.7700760999996419;2501
523;1.7731374999993932;2501
524;1.776051699999698;2501
525;1.7790816999995513;2501
526;1.7820943999995507;2501
527;1.7850948999994216;2501
528;1.7881272999993598;2500
529;1.791556899999705;2501
530;1.795605099999193;2501
531;1.7996576999994431;2500
532;1.8035318999991432;2500
533;1.808015599999635;2500
534;1.8114668999996866;2500
535;1.8155201999998098;2500
536;1.8195232999996733;2500
537;1.8235169999998107;2500
538;1.827508299999863;2500
539;1.831529699999919;2500
540;1.835534999999254;2500
541;1.8386068999998315;2500
542;1.8425270999996428;2500
543;1.8465252999994846;2500
544;1.8505173999992621;2500
545;1.8545248999998876;2500
546;1.85753509999995;2500
547;1.861554599999181;2500
548;1.8655655999991723;2500
549;1.8695234999995591;2500
550;1.873515899999802;2500
551;1.8775120999998762;2500
552;1.8815563999996812;2500
553;1.8855368999993516;2500
554;1.8890926999993098;2500
555;1.8924638999997114;2500
556;1.896512399999665;2500
557;1.9001510999996754;2500
558;1.9033387999998013;2500
559;1.9059746999992058;2500
560;1.9091702999994595;2500
561;1.912152199999582;2500
562;1.9151702999997724;2500
563;1.9181751999994958;2500
564;1.9209436999999525;2500
565;1.9246979999998075;2500
566;1.928494399999181;2501
567;1.9325045999994472;2500
568;1.9365553999996337;2500
569;1.940566599999329;2500
570;1.9445679000000382;2500
571;1.9485565999993923;2500
572;1.9525630999996793;2500
573;1.9554875999992873;2500
574;1.9584977999993498;2500
575;1.962314200000037;2500
576;1.9665687999995498;2500
577;1.9707463999993706;2500
578;1.9729993999999351;2500
579;1.9764158999996653;2500
580;1.9791883999996571;2500
581;1.9821832999996332;2500
582;1.9851365999993504;2500
583;1.9882081999994625;2500
584;1.9911401999997906;2500
585;1.9941344999997455;2500
586;1.9971394999993208;2500
587;2.0001731999991534;2500
588;2.0032163999994737;2500
589;2.006141199999547;2500
590;2.0091828999993595;2500
591;2.012179599999399;2500
592;2.0151837999992495;2500
593;2.018173299999944;2500
594;2.02117139999973;2500
595;2.024177599999348;2500
596;2.0271759999995993;2500
597;2.030169499999829;2500
598;2.0331541999994442;2500
599;2.036182399999234;2501
600;2.038980199999969;2501
601;2.042128999999477;2500
602;2.0451905999998417;2501
603;2.0478219999995417;2501
604;2.051178699999582;2501
605;2.054192499999772;2501
606;2.0571831999995993;2501
607;2.0601808999999776;2501
608;2.0631844999998066;2501
609;2.0661883999991915;2501
610;2.0691825999992943;2501
611;2.071939999999813;2501
612;2.075179699999353;2501
613;2.078194899999289;2501
614;2.081149899999218;2501
615;2.0841671999996834;2500
616;2.087170399999195;2501
617;2.0901465999995708;2501
618;2.0931607999991684;2501
619;2.096168499999294;2501
620;2.0991747999996733;2500
621;2.1021642999994583;2501
622;2.1051680999999007;2501
623;2.108269699999255;2501
624;2.111272499999359;2501
625;2.1142784999992728;2501
626;2.1172696999992695;2501
627;2.120275099999162;2500
628;2.123288999999204;2500
629;2.126243799999429;2500
630;2.1292674999995143;2500
631;2.1321742000000086;2500
632;2.1352531999991697;2500
633;2.1382292999996935;2500
634;2.141274299999168;2500
635;2.144275299999208;2500
636;2.1472642999997333;2500
637;2.1502648999994562;2501
638;2.1532774999996036;2501
639;2.156271399999241;2501
640;2.1592728999994506;2501
641;2.162270699999681;2501
642;2.165269199999784;2501
643;2.1682670000000144;2501
644;2.1712769999994634;2501
645;2.1741633999999976;2501
646;2.177267899999606;2500
647;2.180271699999139;2500
648;2.1832533999995576;2500
649;2.1862617999995564;2500
650;2.18899379999948;2500
651;2.191253599999982;2500
652;2.1942466000000422;2500
653;2.197269299999789;2500
654;2.200265199999194;2499
655;2.2032704999992347;2500
656;2.206273499999952;2500
657;2.2092671999998856;2500
658;2.212274599999546;2499
659;2.215274799999861;2499
660;2.218264099999942;2499
661;2.2212822999999844;2499
662;2.2242888999999195;2499
663;2.227278099999239;2499
664;2.2302645999998276;2498
665;2.233272799999213;2499
666;2.2358807999999044;2499
667;2.238965999999891;2499
668;2.2422521999997116;2499
669;2.2452692999995634;2499
670;2.2482750999997734;2499
671;2.251226299999871;2499
672;2.2542757999999594;2499
673;2.2572794999996404;2499
674;2.2602577999996356;2499
675;2.263273300000037;2499
676;2.2662680999992517;2499
677;2.268944499999634;2499
678;2.271881499999836;2499
679;2.2742384999992282;2499
680;2.2772586999999476;2499
681;2.2800680000000284;2499
682;2.2831436999995276;2499
683;2.2871525999998994;2500
684;2.2901341999995566;2500
685;2.2934783999999127;2500
686;2.297393199999533;2500
687;2.3003501999992295;2499
688;2.3033413999992263;2499
689;2.3060865999996167;2500
690;2.309256099999402;2500
691;2.3122481999998854;2500
692;2.3152405999999246;2500
693;2.318274399999609;2500
694;2.321268799999416;2500
695;2.3242741999993086;2500
696;2.3272540999996636;2500
697;2.330267499999536;2500
698;2.33326869999928;2500
699;2.3362751999993634;2500
700;2.3389518999993015;2500
701;2.342271399999845;2500
702;2.3452680000000328;2499
703;2.3482530999999653;2499
704;2.3512668999992457;2499
705;2.3542921999996906;2499
706;2.357250099999874;2499
707;2.3602698999993663;2499
708;2.3632730999997875;2499
709;2.36627849999968;2499
710;2.368962799999281;2498
711;2.3719460999991497;2498
712;2.3752717999996094;2498
713;2.3782744999998613;2498
714;2.3812765999991825;2498
715;2.3842483999997057;2498
716;2.387267199999769;2498
717;2.390272599999662;2497
718;2.393272999999681;2497
719;2.3962692999994033;2497
