;time;amplitude
0;0.003898500000104832;2130
1;0.007581699999718694;2132
2;0.011592299999392708;2134
3;0.015575999999782653;2137
4;0.019430499999543827;2140
5;0.02343529999961902;2143
6;0.027511000000231434;2145
7;0.031466200000068056;2148
8;0.03542279999965103;2150
9;0.039461499999561056;2152
10;0.043477700000039476;2155
11;0.04746660000000702;2158
12;0.051462399999763875;2160
13;0.05543209999996179;2163
14;0.05940279999958875;2166
15;0.06346789999952307;2169
16;0.06746349999957602;2171
17;0.0714626999997563;2174
18;0.07489729999997508;2177
19;0.0784269999994649;2180
20;0.08239700000012817;2183
21;0.08640289999948436;2186
22;0.08996509999997215;2190
23;0.09348460000001069;2192
24;0.097373399999924;2195
25;0.10136539999984961;2198
26;0.10536799999954383;2202
27;0.10884650000025431;2205
28;0.11213849999967351;2208
29;0.11511049999990064;2210
30;0.11811020000004646;2213
31;0.12115209999956278;2216
32;0.12421209999956773;2219
33;0.12809259999994538;2222
34;0.13111339999977645;2225
35;0.13409039999987726;2228
36;0.13711760000023787;2230
37;0.14008730000023206;2233
38;0.14310769999974582;2236
39;0.14618679999966844;2238
40;0.14911859999938315;2241
41;0.152154999999766;2243
42;0.15620020000005752;2246
43;0.15908089999993535;2250
44;0.16207549999944604;2252
45;0.1651652999998987;2254
46;0.16817600000013044;2256
47;0.17108899999948335;2259
48;0.17420570000012958;2261
49;0.1770781999994142;2264
50;0.18016979999993055;2267
51;0.18317870000009862;2270
52;0.1860815999998522;2273
53;0.18918510000003153;2275
54;0.19203639999977895;2278
55;0.19487060000028578;2281
56;0.19797699999980978;2284
57;0.20070839999971213;2286
58;0.20405209999989893;2289
59;0.20704449999993813;2292
60;0.21005580000019108;2295
61;0.21305859999938548;2298
62;0.21595689999958267;2301
63;0.2189779999998791;2304
64;0.22205459999986488;2307
65;0.22479000000021188;2310
66;0.22805429999971238;2313
67;0.23105719999966823;2316
68;0.2340459999995801;2319
69;0.2370610999996643;2323
70;0.24005440000019007;2326
71;0.2430518999999549;2328
72;0.2460598999996364;2332
73;0.2490546999997605;2335
74;0.2520505000002231;2338
75;0.2550513999995019;2341
76;0.2577955999995538;2344
77;0.2610626999994565;2346
78;0.26405049999993935;2350
79;0.2670621999996001;2353
80;0.27006040000014764;2356
81;0.273051399999531;2360
82;0.27605659999971977;2363
83;0.2788998999994874;2366
84;0.28205090000028576;2369
85;0.2850485999997545;2372
86;0.28805949999969016;2375
87;0.2910583000002589;2378
88;0.2940017999999327;2382
89;0.29704729999957635;2385
90;0.3000514999994266;2388
91;0.3030496999999741;2391
92;0.3060520999997607;2394
93;0.3090578999999707;2397
94;0.3120324999999866;2400
95;0.3150343999996039;2404
96;0.31803930000023684;2407
97;0.3210460999998759;2410
98;0.3240298000000621;2413
99;0.32704199999989214;2417
100;0.33004710000022897;2420
101;0.33302910000020347;2423
102;0.3360317999995459;2427
103;0.33901739999964775;2430
104;0.34177120000003924;2433
105;0.3450474999999642;2436
106;0.34801969999989524;2439
107;0.3510366000000431;2442
108;0.3540682000002562;2445
109;0.35713289999966946;2448
110;0.3600448999995933;2451
111;0.36302749999958905;2455
112;0.36602479999965;2458
113;0.36904189999950177;2461
114;0.37205530000028375;2464
115;0.37474870000005467;2467
116;0.37804719999985537;2471
117;0.3810512000000017;2474
118;0.38404869999976654;2477
119;0.387048099999447;2480
120;0.3900477999995928;2484
121;0.39306239999950776;2487
122;0.39604719999988447;2490
123;0.39906299999984185;2494
124;0.4020497000001342;2497
125;0.40505359999951907;2500
126;0.4077527999997983;2503
127;0.4110536999996839;2507
128;0.4140607999997883;2510
129;0.41695660000004864;2513
130;0.4197548000001916;2516
131;0.4228738000001613;2519
132;0.4258516999998392;2523
133;0.42901439999968716;2526
134;0.4319876999998087;2529
135;0.4349879000001238;2532
136;0.4380660999995598;2536
137;0.441041199999745;2538
138;0.44389880000017;2541
139;0.44690780000019004;2544
140;0.44988089999969816;2547
141;0.45290509999995265;2550
142;0.4559228999996776;2553
143;0.4590257999998357;2556
144;0.4620428999996875;2560
145;0.46507070000006934;2563
146;0.468076199999814;2566
147;0.4710459999996601;2568
148;0.4740463999996791;2572
149;0.4770699999999124;2574
150;0.4800580000000991;2577
151;0.4830568999996103;2580
152;0.48605719999977737;2583
153;0.48905959999956394;2586
154;0.4918206000002101;2589
155;0.49507939999966766;2591
156;0.4980448999995133;2594
157;0.5010799000001498;2597
158;0.5040517999996155;2600
159;0.5070496999996976;2603
160;0.5100550999995903;2606
161;0.5130816000000777;2609
162;0.5160802000000331;2611
163;0.519043899999815;2614
164;0.5219350999996095;2617
165;0.5248007999998663;2620
166;0.5280762000002142;2623
167;0.5310576000001674;2627
168;0.5340418999994654;2629
169;0.5370733999998265;2632
170;0.5400582000002032;2635
171;0.5430846999997812;2638
172;0.5460501999996268;2641
173;0.5490506999994977;2644
174;0.5520869000001767;2646
175;0.5550640999999814;2649
176;0.5577740999997332;2652
177;0.5610844000002544;2654
178;0.5640783999997439;2657
179;0.5670500999995056;2660
180;0.5696896999997989;2662
181;0.5729169999995065;2665
182;0.5760668000002624;2667
183;0.5801126999995176;2670
184;0.5841261999994458;2673
185;0.5870525000000271;2676
186;0.5902428999997937;2678
187;0.5933089999998629;2680
188;0.5973656999995001;2683
189;0.6013578000001871;2686
190;0.6053911999997581;2689
191;0.6092957000000752;2692
192;0.6122883999996702;2695
193;0.6152959999999439;2698
194;0.6191782999994757;2701
195;0.6230923000002804;2704
196;0.626058899999407;2707
197;0.6304487999996127;2709
198;0.6344485999998142;2712
199;0.6384618000001865;2715
200;0.641939099999945;2717
201;0.6453188999994381;2720
202;0.6493757999996888;2723
203;0.6533841999998913;2725
204;0.656926999999996;2729
205;0.660337399999662;2731
206;0.6643705999995291;2733
207;0.6683593999996447;2736
208;0.6723646999998891;2738
209;0.6763198999997257;2741
210;0.6803665999996156;2744
211;0.68435799999952;2746
212;0.6872919999996157;2748
213;0.69015330000002;2749
214;0.69333000000006;2750
215;0.6973643999999695;2752
216;0.701347999999598;2754
217;0.704297499999484;2756
218;0.7080003000000943;2758
219;0.7113130999996429;2760
220;0.7153732999995555;2762
221;0.7193124999994325;2764
222;0.7233759000000646;2765
223;0.7263167999999496;2766
224;0.7303965000000971;2768
225;0.7343098999999711;2770
226;0.7383643000002849;2771
227;0.7419287000002441;2773
228;0.7453675999995539;2774
229;0.749163899999985;2775
230;0.7534051000002364;2776
231;0.7573842000001605;2778
232;0.7603010000002541;2779
233;0.7644224999994549;2780
234;0.7683399999996254;2782
235;0.7723753999998735;2783
236;0.776350299999649;2784
237;0.7802851999995255;2785
238;0.7844085999995514;2787
239;0.7883503000002747;2788
240;0.7919163999995362;2789
241;0.7953943000002255;2790
242;0.7993466999996599;2792
243;0.8033986000000368;2792
244;0.8073700999993889;2793
245;0.8103068999998868;2794
246;0.813336199999867;2794
247;0.8173588999998174;2795
248;0.8213711999997031;2796
249;0.8249453999997058;2797
250;0.8292939000002661;2798
251;0.8333830000001399;2799
252;0.8373947000000044;2799
253;0.8413202000001547;2800
254;0.8438937000000806;2800
255;0.846853099999862;2800
256;0.8498424999997951;2800
257;0.8528638999996474;2800
258;0.8558769000001121;2800
259;0.8603744000001825;2800
260;0.8643850999997085;2799
261;0.8684149000000616;2798
262;0.8723572999997486;2798
263;0.8769432999997662;2798
264;0.8803430999996635;2798
265;0.8844011999999566;2799
266;0.8883746000001338;2798
267;0.8918900999997277;2798
268;0.8953999999994267;2798
269;0.8993835999999646;2797
270;0.9033803000002081;2797
271;0.9069244000002072;2796
272;0.9103478999995787;2796
273;0.9143998999998075;2796
274;0.9183593999996447;2795
275;0.9219180999998571;2795
276;0.9248744999995324;2794
277;0.9283175999999003;2794
278;0.9323782000001302;2793
279;0.9363873000002059;2793
280;0.9393036000001302;2793
281;0.9433899999994537;2792
282;0.9474136999997427;2791
283;0.9513858000000255;2791
284;0.9549338999995598;2790
285;0.9577202000000398;2789
286;0.9614317999994455;2789
287;0.9653355000000374;2788
288;0.9693314999994982;2787
289;0.9723414000000048;2785
290;0.9761736999998902;2784
291;0.9791565999994418;2783
292;0.9821052999996027;2782
293;0.9852624999994077;2781
294;0.9881527999996251;2780
295;0.990751000000273;2779
296;0.9943869999997332;2778
297;0.998388299999533;2777
298;1.0023252000000866;2775
299;1.0063930999995137;2774
300;1.0103750999996919;2772
301;1.0143934999996418;2771
302;1.018330299999434;2770
303;1.0223949999999604;2769
304;1.0263509999995222;2767
305;1.0303985999998986;2765
306;1.0344051000001855;2763
307;1.0383240999999543;2761
308;1.0419223999997484;2759
309;1.0451444000000265;2758
310;1.048124099999768;2756
311;1.0511697000001732;2754
312;1.0541300999993837;2752
313;1.056960099999742;2751
314;1.0601004000000103;2750
315;1.0630782999996882;2748
316;1.0660883999998987;2746
317;1.0694279999997889;2745
318;1.0732178999996904;2742
319;1.0764594000002035;2741
320;1.0803934999994453;2739
321;1.084413300000051;2737
322;1.0883714999999938;2734
323;1.09195869999985;2732
324;1.095311699999911;2730
325;1.0993911999994452;2727
326;1.1034186999995654;2725
327;1.107336199999736;2722
328;1.1103564999993978;2720
329;1.1143959999999424;2717
330;1.1184127999995326;2715
331;1.1221712999995361;2712
332;1.1249127000000954;2710
333;1.1283633000002737;2708
334;1.1324137999999948;2706
335;1.1363620000001902;2702
336;1.1403736000002027;2699
337;1.1433256999998775;2697
338;1.1473832000001494;2694
339;1.151381799999399;2692
340;1.155374799999663;2688
341;1.1594247000002724;2686
342;1.163474199999655;2683
343;1.1674686999995174;2679
344;1.1714325000002646;2676
345;1.1749719999997978;2673
346;1.179412599999523;2670
347;1.1834225000002334;2666
348;1.187414699999863;2663
349;1.1912053999994896;2659
350;1.1943301999999676;2656
351;1.198409200000242;2652
352;1.2021777999998449;2649
353;1.206409700000222;2646
354;1.2103937000001679;2642
355;1.2143805999994584;2639
356;1.2181768000000375;2635
357;1.2224083999999493;2632
358;1.2263585000000603;2628
359;1.2303814999995666;2624
360;1.2343905999996423;2619
361;1.2383844999994835;2616
362;1.2419491000000562;2612
363;1.2453261000000566;2608
364;1.249374899999566;2605
365;1.253393999999389;2602
366;1.2574138999998468;2598
367;1.2603260999994745;2594
368;1.2643208999998024;2591
369;1.2683963999998014;2587
370;1.2723931000000448;2583
371;1.2763624999997774;2580
372;1.279896699999881;2576
373;1.2833464999994249;2573
374;1.2874596999999994;2569
375;1.2912427000001117;2565
376;1.2949114000002737;2562
377;1.2983501999997316;2559
378;1.3022501999994347;2555
379;1.3063916000000972;2551
380;1.3104118999999628;2547
381;1.314365600000201;2543
382;1.3179647999995723;2539
383;1.3213266000002477;2536
384;1.3249834999996892;2533
385;1.328901599999881;2529
386;1.3318904999996448;2526
387;1.334870900000169;2523
388;1.3382260999997015;2520
389;1.3419914999994944;2516
390;1.3449350000000777;2513
391;1.3479726999994455;2510
392;1.3509678999998869;2506
393;1.3539860000000772;2502
394;1.3569800999994186;2499
395;1.3599883999995654;2496
396;1.3629818999997951;2493
397;1.36598690000028;2490
398;1.3689889999996012;2487
399;1.3719789999995555;2484
400;1.3748092999994697;2480
401;1.3779993999996805;2477
402;1.3809838999995918;2474
403;1.3839883999999074;2471
404;1.3869813000001159;2467
405;1.3897790999999415;2464
406;1.3929835999997522;2461
407;1.3959846999996444;2457
408;1.3990020999999615;2454
409;1.4019714999994903;2450
410;1.404859899999792;2447
411;1.407768600000054;2444
412;1.4109597999995458;2441
413;1.4139753999997993;2437
414;1.4169678999996904;2434
415;1.4199879999996483;2431
416;1.422961000000214;2429
417;1.425970999999663;2426
418;1.4289672999993854;2424
419;1.4319813000001886;2421
420;1.4349510000001828;2417
421;1.4379681999998866;2414
422;1.4408450999999332;2411
423;1.443979799999397;2408
424;1.4469913000002634;2405
425;1.4499864999997953;2402
426;1.4529754999994111;2399
427;1.4559757999995782;2395
428;1.4589798999995764;2393
429;1.4619760999994469;2390
430;1.464973099999952;2387
431;1.467834099999891;2384
432;1.4709645000002638;2380
433;1.473961199999394;2377
434;1.4769685999999638;2374
435;1.4800765999998475;2371
436;1.4830544999995254;2367
437;1.4858238999995592;2364
438;1.4890915999994832;2361
439;1.4918277999995553;2357
440;1.4950564999999187;2354
441;1.4980544999998529;2350
442;1.5010645000002114;2347
443;1.5040576999999757;2343
444;1.5070629000001645;2340
445;1.5099610999996003;2337
446;1.5128955999998652;2334
447;1.5158906999995452;2330
448;1.5189406999998027;2327
449;1.5218956999997317;2324
450;1.5247966999995697;2321
451;1.528061600000001;2318
452;1.5310515000001033;2314
453;1.5340690000002724;2311
454;1.5370852999994895;2308
455;1.5400766000002477;2305
456;1.5431092999997418;2302
457;1.5461061999994854;2299
458;1.5490789999994377;2296
459;1.5520612999998775;2293
460;1.5550900999996884;2290
461;1.557707599999958;2287
462;1.5608371999996962;2285
463;1.5638395999994827;2282
464;1.5668520999997781;2280
465;1.5701626999998552;2277
466;1.5728425999996034;2273
467;1.5761671999998725;2270
468;1.5789518000001408;2267
469;1.5822073999997883;2264
470;1.5851784999995289;2261
471;1.5881727999994837;2259
472;1.5919085999994422;2256
473;1.595368100000087;2253
474;1.5994017000002714;2250
475;1.6034153000000515;2246
476;1.6072315000001254;2243
477;1.6113924000001134;2240
478;1.615386800000124;2236
479;1.6181096999998772;2233
480;1.6213737999996738;2231
481;1.624909299999672;2228
482;1.6283690000000206;2225
483;1.6313378999993802;2222
484;1.635395499999504;2218
485;1.6390692999993917;2215
486;1.6433891999995467;2211
487;1.6474093999995603;2209
488;1.651412100000016;2206
489;1.6550714999993943;2202
490;1.6592534000001251;2199
491;1.6633187999996153;2196
492;1.6673836999998457;2192
493;1.67089709999982;2189
494;1.6740850999995018;2186
495;1.677050600000257;2183
496;1.680059799999981;2181
497;1.6830534999999145;2178
498;1.6856834000000163;2175
499;1.6890783999997439;2173
500;1.6920886999996583;2170
501;1.6950903999995717;2168
502;1.6980899999998655;2166
503;1.7010768000000098;2164
504;1.7040808000001562;2162
505;1.7070546999993894;2161
506;1.7100715999995373;2158
507;1.7130805999995573;2156
508;1.7160745000001043;2154
509;1.7191625999994358;2151
510;1.722082600000249;2149
511;1.72508629999993;2147
512;1.7280770999996093;2145
513;1.7310772999999244;2142
514;1.7337798999997176;2141
515;1.7371134999993956;2139
516;1.7401011000001745;2137
517;1.7432079999998678;2136
518;1.746110399999452;2134
519;1.7487869999995382;2132
520;1.752107199999955;2131
521;1.7551142000002073;2129
522;1.7578008999998929;2127
523;1.7611988999997266;2126
524;1.7641415999996752;2123
525;1.7671160999998392;2122
526;1.7701140999997733;2120
527;1.773204000000078;2118
528;1.7761930999995457;2117
529;1.7790849000002709;2115
530;1.7820777999995698;2114
531;1.78508199999942;2112
532;1.7881656999998086;2111
533;1.7907481000002008;2109
534;1.794073799999751;2108
535;1.7970770000001721;2106
536;1.800069899999471;2105
537;1.803072799999427;2103
538;1.8060801999999967;2102
539;1.809073599999465;2101
540;1.812067500000012;2099
541;1.8150694999994812;2098
542;1.8180676000001768;2097
543;1.8210702999995192;2096
544;1.8240510999994513;2095
545;1.8271027000000686;2094
546;1.8300724000000628;2093
547;1.8330668999997215;2092
548;1.8360728999996354;2091
549;1.83907519999957;2090
550;1.8420851000000766;2089
551;1.844819899999493;2088
552;1.8480757999996058;2087
553;1.8510924000001978;2085
554;1.8540661999995791;2084
555;1.8571068000001105;2084
556;1.8600680999998076;2083
557;1.8630782000000181;2083
558;1.8660684999995283;2082
559;1.8690718999996534;2081
560;1.8720844999998008;2081
561;1.8750896000001376;2080
562;1.8780679999999847;2080
563;1.8810625999994954;2079
564;1.8840855999997075;2078
565;1.887075200000254;2077
566;1.8896569999997155;2077
567;1.8930671999996775;2076
568;1.896062400000119;2076
569;1.8990751999999702;2075
570;1.902083799999673;2075
571;1.905025399999431;2074
572;1.9077832000002672;2074
573;1.911041700000169;2073
574;1.914071000000149;2073
575;1.917051999999785;2073
576;1.9199031999996805;2073
577;1.9228155000000697;2073
578;1.926453699999911;2073
579;1.930458899999394;2072
580;1.9344462999997631;2072
581;1.9384481999995842;2072
582;1.9420952999998917;2072
583;1.946465299999545;2072
584;1.9504525000002104;2072
585;1.9544027000001734;2072
586;1.9580159999995885;2072
587;1.9623842000000877;2072
588;1.9662751999994725;2072
589;1.9693227999996452;2072
590;1.973391399999855;2072
591;1.976337600000079;2072
592;1.9803974999995262;2073
593;1.984005000000252;2073
594;1.9868970999996236;2074
595;1.9903143000001364;2073
596;1.9933296999997765;2074
597;1.9973826999994344;2075
598;2.001388399999996;2075
599;2.0043494000001374;2076
600;2.0079358000002685;2077
601;2.011344399999871;2078
602;2.015332199999648;2078
603;2.0178783000001204;2079
604;2.021441799999593;2080
605;2.024939799999629;2081
606;2.028230099999746;2082
607;2.0322390999999698;2083
608;2.0362193000000843;2084
609;2.0391202999999223;2085
610;2.0433501999996224;2086
611;2.046127399999932;2087
612;2.04922759999954;2088
613;2.052131599999484;2089
614;2.0552100999993854;2091
615;2.057922199999666;2092
616;2.0613409999996293;2092
617;2.0653819999997722;2094
618;2.0693907999993826;2095
619;2.0733847000001333;2097
620;2.0763332999995328;2098
621;2.0792706000002;2099
622;2.0822760000000926;2100
623;2.0852794000002177;2100
624;2.088275600000088;2102
625;2.090929099999812;2103
626;2.0939282999997886;2104
627;2.096936099999766;2105
628;2.0999207999993814;2106
629;2.10296500000004;2107
630;2.1059549000001425;2109
631;2.1091977999994924;2110
632;2.1121038000001136;2112
633;2.115100999999413;2114
634;2.1179972999998427;2115
635;2.121095299999979;2117
636;2.124820899999577;2119
637;2.1281954999994923;2120
638;2.1311015000001134;2122
639;2.134087499999623;2123
640;2.1371064999993905;2125
641;2.1402031999996325;2127
642;2.1430980999994063;2129
643;2.1460903999995935;2130
644;2.149095799999486;2132
645;2.1520879999998215;2134
646;2.155104200000096;2136
647;2.1578192999995736;2138
648;2.1611893999997847;2139
649;2.1640959999995175;2141
650;2.1670905999999377;2143
651;2.1698744999994233;2145
652;2.1731908000001567;2147
653;2.176195799999732;2149
654;2.179094299999633;2151
655;2.182087600000159;2153
656;2.185027900000023;2155
657;2.1881893999998283;2157
658;2.1908063000000766;2158
659;2.194200699999783;2160
660;2.1970541999999114;2162
661;2.2000859999998283;2164
662;2.203093699999954;2166
663;2.2060694000001604;2168
664;2.2090877999999066;2170
665;2.2120828999995865;2172
666;2.2151019000002634;2174
667;2.218184100000144;2176
668;2.2211013999994975;2179
669;2.2239997999995467;2181
670;2.2270736999998917;2183
671;2.2300884999995105;2186
672;2.232862199999545;2188
673;2.236093599999549;2190
674;2.2390866999994614;2193
675;2.2421018999993976;2195
676;2.2450960999995004;2197
677;2.24808639999992;2199
678;2.251089100000172;2202
679;2.2540987000002133;2204
680;2.25720469999942;2207
681;2.2601098999994065;2209
682;2.26309399999991;2212
683;2.266092099999696;2214
684;2.2690944999994827;2217
685;2.272086599999966;2220
686;2.2750921999995626;2223
687;2.2780954999998357;2225
688;2.2811520999994173;2228
689;2.284063299999616;2231
690;2.2871000999994067;2233
691;2.2900994999999966;2236
692;2.2931876000002376;2238
693;2.295904999999948;2241
694;2.2991747999994914;2244
695;2.302191099999618;2247
696;2.305191499999637;2250
697;2.3078346000002057;2252
698;2.310938300000089;2254
699;2.3141854999994393;2257
700;2.317192100000284;2261
701;2.320033899999544;2264
702;2.3231879999993907;2266
703;2.326211699999476;2269
704;2.3290994999997565;2272
705;2.332098599999881;2275
706;2.335118099999818;2278
707;2.338093899999876;2281
708;2.340810799999417;2284
709;2.3450393000002805;2287
710;2.3481202000002668;2290
711;2.351093499999479;2293
712;2.354094199999963;2295
713;2.3570975000002363;2299
714;2.3601167999995596;2301
715;2.363117599999896;2304
716;2.366098699999384;2307
717;2.3691914000000907;2310
718;2.3721937000000253;2313
