;time;amplitude
0;0.004799299999831419;2335
1;0.00880700000016077;2334
2;0.012808000000404718;2333
3;0.016380900000513066;2333
4;0.020721900000353344;2332
5;0.024573200000304496;2332
6;0.027532800000699353;2331
7;0.031603500000528584;2330
8;0.03458150000005844;2330
9;0.037627700000484765;2329
10;0.04155400000036025;2329
11;0.044548300000315066;2328
12;0.04751060000035068;2328
13;0.05158140000003186;2327
14;0.05452710000008665;2327
15;0.057523999999830266;2326
16;0.06053150000025198;2326
17;0.0632673000000068;2325
18;0.0665577999998277;2325
19;0.06935890000022482;2325
20;0.07255650000024616;2324
21;0.07567030000063824;2323
22;0.0784616000000824;2323
23;0.08266510000066774;2322
24;0.08558040000025358;2322
25;0.08853580000049988;2321
26;0.09154050000051939;2321
27;0.09414590000051248;2320
28;0.09732239999993908;2320
29;0.10032800000044517;2319
30;0.10353550000036194;2319
31;0.10632280000027095;2319
32;0.11060590000033699;2318
33;0.11479580000013812;2318
34;0.11875430000054621;2317
35;0.1231751000004806;2317
36;0.12817619999987073;2316
37;0.13319700000010926;2316
38;0.13755029999992985;2315
39;0.14194709999992483;2314
40;0.14710760000070877;2314
41;0.1521364000000176;2314
42;0.15602510000007896;2313
43;0.1601584999998522;2313
44;0.16415409999990516;2312
45;0.16917650000050344;2312
46;0.1735714000005828;2312
47;0.1781010000004244;2311
48;0.18311520000042947;2311
49;0.1876207000004797;2311
50;0.19162540000070294;2310
51;0.19442500000059226;2310
52;0.1974331000001257;2311
53;0.2003634000002421;2310
54;0.20325970000067173;2310
55;0.20628209999995306;2310
56;0.20922980000068492;2310
57;0.21289680000063527;2310
58;0.2168931000005614;2310
59;0.22024270000019897;2310
60;0.22492779999993218;2310
61;0.2287157999999181;2310
62;0.23276799999985087;2310
63;0.23635580000063783;2310
64;0.2396945999998934;2309
65;0.24377150000054826;2309
66;0.24774640000032377;2309
67;0.25143819999993866;2309
68;0.25478540000040084;2309
69;0.2587754000005589;2309
70;0.26277250000021013;2309
71;0.266827700000249;2309
72;0.27072899999984656;2308
73;0.2747785000001386;2308
74;0.27877100000023347;2309
75;0.28289029999996274;2309
76;0.2862453000007008;2309
77;0.2892191000000821;2308
78;0.291157600000588;2309
79;0.2930323999999018;2308
80;0.29518020000068645;2308
81;0.2970046000000366;2308
82;0.2990107000005082;2308
83;0.3009853000003204;2308
84;0.3031627999998818;2309
85;0.3051541000004363;2309
86;0.30703670000002603;2309
87;0.30908610000005865;2309
88;0.3111019000007218;2309
89;0.312946699999884;2309
90;0.31501420000040525;2309
91;0.3171773000003668;2310
92;0.3191513000001578;2310
93;0.3222233000005872;2310
94;0.3240927000006195;2310
95;0.32613450000008015;2310
96;0.3281248000002961;2310
97;0.3300911000005726;2310
98;0.3320270000003802;2310
99;0.3341465000003154;2310
100;0.3361193999999159;2311
101;0.3380025000005844;2311
102;0.3400558000003002;2311
103;0.34214410000004136;2311
104;0.3451728000000003;2311
105;0.3471896999999444;2311
106;0.34912900000017544;2311
107;0.3511372000002666;2312
108;0.353035600000112;2311
109;0.35507480000069336;2311
110;0.3570540999999139;2311
111;0.3590644000005341;2312
112;0.3610532000002422;2312
113;0.3629908000002615;2312
114;0.3650871999998344;2312
115;0.36703530000067985;2312
116;0.369039199999861;2312
117;0.37102370000047813;2312
118;0.3730457000001479;2312
119;0.37507060000007186;2312
120;0.3770339000002423;2312
121;0.3790156000004572;2312
122;0.3810270000003584;2312
123;0.38302520000070217;2312
124;0.3849356999999145;2312
125;0.3869691999998395;2312
126;0.38896999999997206;2312
127;0.39099160000023403;2312
128;0.3929931000002398;2312
129;0.3950463999999556;2313
130;0.3970558999999412;2313
131;0.39907709999988583;2313
132;0.40204630000062025;2313
133;0.404037000000244;2313
134;0.40610860000015236;2313
135;0.4091063000005306;2313
136;0.4110831000007238;2313
137;0.4141073000000688;2314
138;0.4160749000002397;2314
139;0.4180901999998241;2314
140;0.42007770000054734;2314
141;0.42211440000028233;2314
142;0.4240816999999879;2315
143;0.4260412000003271;2315
144;0.42806990000008227;2315
145;0.4300146000005043;2315
146;0.4319442000005438;2316
147;0.43398140000044805;2316
148;0.4360292000001209;2316
149;0.43799050000052375;2316
150;0.4399520000006305;2316
151;0.44204679999984364;2316
152;0.44399630000043544;2317
153;0.44609459999992396;2317
154;0.44811550000031275;2317
155;0.4501082000006136;2317
156;0.452135300000009;2317
157;0.45403780000015104;2318
158;0.45608540000012;2318
159;0.4581207999999606;2318
160;0.4601060000004509;2318
161;0.4620425000002797;2318
162;0.46403620000000956;2319
163;0.46604999999999563;2319
164;0.46809980000034557;2319
165;0.47010060000047815;2319
166;0.472083499999826;2319
167;0.47409090000019205;2319
168;0.47606900000027963;2319
169;0.4779963000000862;2320
170;0.48000279999996565;2320
171;0.48201180000069144;2320
172;0.4839492999999493;2320
173;0.4860045000004902;2321
174;0.487995200000114;2321
175;0.4899949000000561;2321
176;0.4920919000005597;2321
177;0.495095900000706;2321
178;0.49713120000069466;2322
179;0.49912250000033964;2322
180;0.5011134000005768;2322
181;0.5031095000003916;2322
182;0.5051174999998693;2322
183;0.5071175000002768;2322
184;0.5091161000000284;2323
185;0.5111422999998467;2323
186;0.5131515000002764;2323
187;0.515141400000175;2324
188;0.518138600000384;2324
189;0.520144000000073;2324
190;0.5221440000004804;2324
191;0.524159999999938;2324
192;0.5271462000000611;2325
193;0.5291517000005115;2325
194;0.5311373000004096;2325
195;0.5330669000004491;2325
196;0.5350672000004124;2325
197;0.5370726000001014;2325
198;0.5390439000002516;2326
199;0.5410729000004721;2326
200;0.5430763000003935;2326
201;0.5450715000006312;2326
202;0.5471715000003314;2326
203;0.5491462999998475;2327
204;0.5511317000000417;2327
205;0.553137500000048;2327
206;0.5551093000003675;2328
207;0.557113500000014;2328
208;0.5591257000005498;2328
209;0.5610948000003191;2328
210;0.5631462999999712;2328
211;0.565105499999845;2329
212;0.5671142999999574;2329
213;0.5690257000005658;2329
214;0.5710857000003671;2329
215;0.5733175000004849;2329
216;0.5763016000000789;2329
217;0.5791911000005712;2329
218;0.5813220000000001;2330
219;0.5843100000001868;2330
220;0.5873209000001225;2331
221;0.59032230000048;2331
222;0.5933199999999488;2331
223;0.5962124000006952;2332
224;0.5981810000002952;2332
225;0.6003169000005073;2333
226;0.6030281000003015;2333
227;0.6052999000003183;2334
228;0.6082489000000351;2334
229;0.6110487000005378;2334
230;0.6133171000001312;2334
231;0.6162512000000788;2335
232;0.6191631000001507;2335
233;0.6227673000003051;2336
234;0.626359599999887;2336
235;0.6294077000002289;2336
236;0.6324488000000201;2337
237;0.6354620000001887;2337
238;0.6384235000004992;2337
239;0.6414604999999938;2338
240;0.6441171000005852;2338
241;0.6461259000006976;2339
242;0.6481221000003643;2339
243;0.6503922000001694;2340
244;0.6533918000004633;2340
245;0.6563732000004165;2340
246;0.6591760999999678;2340
247;0.6622254000003522;2340
248;0.6652571000004173;2341
249;0.6682873999998264;2341
250;0.6712689000005412;2342
251;0.6746567000000141;2342
252;0.6785577000000558;2342
253;0.6825478999999177;2343
254;0.6856842000006509;2343
255;0.6891369000004488;2344
256;0.6910102000001643;2344
257;0.6932516000006217;2344
258;0.6960487000005742;2345
259;0.6982277000006434;2345
260;0.7012338000004092;2346
261;0.7030592000000979;2346
262;0.7068208999999115;2347
263;0.7107028000000355;2348
264;0.7145255000004909;2348
265;0.7187571000004027;2349
266;0.7211743000007118;2350
267;0.7231271000000561;2351
268;0.7266638000000967;2351
269;0.7307153000001563;2352
270;0.7347337000001062;2353
271;0.738202800000181;2354
272;0.7416364999999132;2354
273;0.7444822000006752;2354
274;0.7474255000006451;2355
275;0.7502749000004769;2356
276;0.753136600000289;2356
277;0.755130000000463;2357
278;0.7570843000003151;2357
279;0.7591141000002608;2358
280;0.7611237000000983;2358
281;0.7630753000003097;2359
282;0.7651231999998345;2359
283;0.7669648999999481;2360
284;0.7691263000006074;2360
285;0.7710749000007127;2360
286;0.7730916999998954;2360
287;0.7750765999999203;2360
288;0.7770747000004121;2361
289;0.7790929000002507;2361
290;0.7811083000005965;2361
291;0.783186200000273;2362
292;0.7851674000003186;2362
293;0.7881780000006984;2362
294;0.790111700000125;2363
295;0.7921255000001111;2364
296;0.7941427000005206;2364
297;0.7960262000005969;2364
298;0.7981014000006326;2364
299;0.8001229000001331;2365
300;0.802027900000212;2365
301;0.8040908000002673;2366
302;0.8071081000007325;2366
303;0.8101198000003933;2367
304;0.8121028000005026;2368
305;0.8161034000004292;2368
306;0.8181285999999091;2369
307;0.8201939999999013;2369
308;0.8231197000004613;2369
309;0.8250634000005448;2370
310;0.8270677000000433;2371
311;0.8290734000001976;2371
312;0.8312595000006695;2371
313;0.8341134000002057;2372
314;0.8371213000000353;2372
315;0.838983300000109;2373
316;0.8410422000006292;2373
317;0.8431276999999682;2374
318;0.8450624000006428;2374
319;0.8470913000001019;2375
320;0.8501172000005681;2375
321;0.8530980000005002;2376
322;0.8553582000004099;2377
323;0.8583213000001706;2377
324;0.861361900000702;2377
325;0.8641166000006706;2378
326;0.8661274000005506;2378
327;0.8692705000003116;2379
328;0.872366200000215;2380
329;0.875366600000234;2380
330;0.878025300000445;2381
331;0.8803321000004871;2382
332;0.8833449000003384;2382
333;0.8861532999999326;2383
334;0.8893382000005658;2383
335;0.8923460000005434;2384
336;0.8953492999999071;2384
337;0.8983640000005835;2385
338;0.9010934000007182;2386
339;0.9031355000006442;2386
340;0.9063544999999067;2386
341;0.9093646999999692;2387
342;0.9121064000000842;2388
343;0.9153744000004735;2389
344;0.9183947000001353;2390
345;0.9212388000005376;2390
346;0.9242391000007046;2391
347;0.927198600000338;2392
348;0.9301353999999264;2392
349;0.9320188000001508;2393
350;0.9340159000003041;2393
351;0.9359737000004316;2393
352;0.9381990000001679;2394
353;0.9412345999999161;2394
354;0.9442443000007188;2395
355;0.9476241000002119;2396
356;0.950576700000056;2396
357;0.954654300000584;2397
358;0.9585943000001862;2398
359;0.9615737000003719;2399
360;0.9643775000004098;2400
361;0.9671653000004881;2400
362;0.9691262000005736;2401
363;0.9711702000004152;2401
364;0.9730800000006639;2402
365;0.9750885000003109;2402
366;0.9770931000002747;2402
367;0.9790712000003623;2403
368;0.9811206000003949;2404
369;0.983146200000192;2404
370;0.9851722000003065;2404
371;0.9871561999998448;2405
372;0.9891488000002937;2405
373;0.9911345000000438;2405
374;0.993154400000094;2406
375;0.995179300000018;2406
376;0.998099500000535;2406
377;1.0001674000004641;2407
378;1.002132900000106;2408
379;1.0041375000000698;2408
380;1.0061412000004566;2408
381;1.0081688999998732;2409
382;1.010172799999964;2410
383;1.0121689000006882;2410
384;1.013947200000075;2411
385;1.0161557999999786;2411
386;1.018173200000092;2411
387;1.0202028000003338;2412
388;1.0231383999998798;2412
389;1.0266726999998355;2413
390;1.0303244000006089;2414
391;1.0335599999998522;2414
392;1.0362193999999363;2415
393;1.0393558000005214;2416
394;1.0423481000007087;2416
395;1.0454444000006333;2417
396;1.0484629000002315;2417
397;1.05143390000012;2418
398;1.0544325999999273;2419
399;1.0574340000002849;2420
400;1.0604389999998602;2420
401;1.0636394000002838;2421
402;1.0676923999999417;2422
403;1.0723054999998567;2423
404;1.0772163999999975;2423
405;1.0822334000004048;2425
406;1.0867236000003686;2426
407;1.0907502000000022;2426
408;1.0947409000000334;2427
409;1.0985567000006995;2428
410;1.1026802000005773;2429
411;1.106883899999957;2430
412;1.1108602000003884;2430
413;1.1149178000005122;2431
414;1.1186127000000852;2432
415;1.121903100000054;2433
416;1.1257748000007268;2433
417;1.1299827000002551;2434
418;1.1339600000001155;2435
419;1.1376716000004308;2436
420;1.1419233000005988;2437
421;1.1459490000006554;2438
422;1.1499504000003071;2439
423;1.1533336000002237;2439
424;1.157444000000396;2440
425;1.1618610000004992;2441
426;1.1659030000000712;2443
427;1.1693875000000844;2444
428;1.1739480000005642;2444
429;1.177947099999983;2446
430;1.1819469000001845;2447
431;1.1859032000002117;2448
432;1.189310700000533;2449
433;1.1923557000000073;2450
434;1.195823900000505;2451
435;1.1999562000000878;2451
436;1.2033724000002621;2452
437;1.2069068999999217;2453
438;1.2109590999998545;2453
439;1.214949300000626;2454
440;1.2187064999998256;2456
441;1.2229035999998814;2457
442;1.2268536999999924;2458
443;1.2308865000004516;2459
444;1.234468100000413;2460
445;1.2377862000003006;2460
446;1.2419568000004801;2461
447;1.2459568000003856;2462
448;1.2498303000002124;2463
449;1.2534112000003006;2463
450;1.257855599999857;2464
451;1.2619060000006357;2465
452;1.2655788000001849;2466
453;1.2685148000000481;2467
454;1.2717077000006611;2468
455;1.2759257000006983;2469
456;1.2796229000005042;2470
457;1.2823795000003884;2471
458;1.2855144000004657;2472
459;1.2885661000000255;2472
460;1.2925640000003114;2473
461;1.2955737000002046;2474
462;1.2994452000002639;2475
463;1.3022344999999405;2476
464;1.3054621000001134;2476
465;1.3084288999998535;2477
466;1.3114144999999553;2478
467;1.314390900000035;2478
468;1.3174603000006755;2479
469;1.3204497000006086;2480
470;1.3233751000007032;2480
471;1.3264764000005016;2481
472;1.3292803000003914;2481
473;1.33245369999986;2482
474;1.3354867000007289;2483
475;1.3384531000001516;2483
476;1.3414738999999827;2484
477;1.344309400000384;2484
478;1.3473485000004075;2485
479;1.3504640000001018;2486
480;1.353388300000006;2487
481;1.356484700000692;2487
482;1.3594189000004917;2488
483;1.362463000000389;2488
484;1.3654446999998981;2489
485;1.368424000000232;2489
486;1.37140460000046;2490
487;1.3744096999998874;2490
488;1.3774093000001812;2491
489;1.3804010000003473;2491
490;1.383398599999964;2492
491;1.3863251000002492;2493
492;1.3894733000006454;2493
493;1.3924268999999185;2494
494;1.3954293000006146;2495
495;1.3984209000000192;2495
496;1.4013964000005217;2496
497;1.404395900000054;2496
498;1.4074711000002935;2497
499;1.4104504000006273;2498
500;1.4134775000002264;2498
501;1.4163926999999603;2499
502;1.419235899999876;2499
503;1.4224509000005128;2500
504;1.4252939000007245;2500
505;1.4286995000002207;2501
506;1.4313873999999487;2502
507;1.4344080999999278;2502
508;1.4375810000001366;2502
509;1.4408069000000978;2504
510;1.4449041000007128;2504
511;1.4489149000000907;2505
512;1.4523323000003074;2505
513;1.4557819999999992;2506
514;1.4599343999998382;2507
515;1.4639271000005465;2507
516;1.4678666999998313;2508
517;1.4718736000004355;2509
518;1.475890700000491;2509
519;1.479878799999824;2510
520;1.4836705000006987;2510
521;1.4862098000003243;2511
522;1.4893642000006366;2511
523;1.4926236999999674;2512
524;1.4969546000002083;2513
525;1.500386100000469;2513
526;1.5049238000001424;2514
527;1.5089146999998775;2514
528;1.5129157999999734;2515
529;1.5164736000006087;2515
530;1.5193442999998297;2516
531;1.5240082999998776;2516
532;1.5276105000002644;2517
533;1.531528000000435;2517
534;1.5358671000003596;2517
535;1.5398734000000331;2518
536;1.543922300000304;2518
537;1.5478413999999248;2519
538;1.5519920000006096;2519
539;1.5558992000005674;2520
540;1.559866200000215;2520
541;1.563881300000503;2521
542;1.5679290000007313;2521
543;1.571972800000367;2522
544;1.5759212000002663;2522
545;1.579922599999918;2523
546;1.5839248000002044;2523
547;1.5878980000006777;2524
548;1.591846300000725;2524
549;1.5954029000004084;2525
550;1.5998945999999705;2526
551;1.6033978000004936;2526
552;1.606629800000519;2526
553;1.6108436000004076;2527
554;1.6149328000001333;2528
555;1.6189712000004874;2528
556;1.622886400000425;2529
557;1.6274804000004224;2530
558;1.6319076999998288;2530
559;1.6357040000002598;2530
560;1.6398886000006314;2531
561;1.6438594000001103;2531
562;1.6479292000003625;2531
563;1.65192449999995;2532
564;1.6559542000004512;2532
565;1.6598921000004339;2533
566;1.6638977000002342;2533
567;1.6678982000003089;2534
568;1.6719385000005786;2534
569;1.6758895000002667;2534
570;1.6798939000000246;2534
571;1.6838379999999233;2535
572;1.6877942000000985;2535
573;1.6918670000004568;2536
574;1.6958971000003658;2536
575;1.6999157999998715;2536
576;1.7034173000001829;2536
577;1.7064194000004136;2537
578;1.7094346000003497;2537
579;1.7124262000006638;2538
580;1.71539920000032;2538
581;1.7183558000006087;2538
582;1.7213516000001619;2538
583;1.7245702999998684;2539
584;1.728845900000124;2539
585;1.7328565000007075;2539
586;1.7363187000000835;2540
587;1.7398425000001225;2539
588;1.743861800000559;2539
589;1.7477650999999241;2540
590;1.7512583000006998;2540
591;1.7547676000003776;2539
592;1.758783900000708;2540
593;1.762741200000164;2540
594;1.7664506999999503;2540
595;1.7692901999998867;2540
596;1.7726753000006283;2540
597;1.7767516000003525;2540
598;1.780769599999985;2540
599;1.7837253000006967;2540
600;1.7877555000004577;2540
601;1.7917713000006188;2540
602;1.7957547000005434;2540
603;1.7993222000004607;2540
604;1.8023129000002882;2540
605;1.8056981999998243;2539
606;1.8097578000006251;2539
607;1.8134748000002219;2540
608;1.8167124000001422;2540
609;1.820733300000029;2540
610;1.824777499999982;2540
611;1.828821500000231;2540
612;1.8327546000000439;2540
613;1.8363538000003246;2540
614;1.8397279999999228;2540
615;1.843766200000573;2540
616;1.847164700000576;2540
617;1.8501796000000468;2540
618;1.8521772000003693;2539
619;1.8541759999998249;2539
620;1.856178699999873;2539
621;1.858188600000176;2539
622;1.8602809000003617;2539
623;1.863132299999961;2539
624;1.8651451000005181;2539
625;1.8671352000001207;2539
626;1.8691314000006969;2539
627;1.871103800000128;2539
628;1.8729902000004586;2539
629;1.8750549000005776;2539
630;1.877042099999926;2539
631;1.8792393000003358;2539
632;1.881107900000643;2539
633;1.8830901999999696;2539
634;1.8850296000000526;2539
635;1.8871908000000985;2539
636;1.8891017000005377;2539
637;1.8910031000004892;2539
638;1.8930872999999337;2539
639;1.8950174999999945;2539
640;1.8970635000005132;2539
641;1.8991475000002538;2539
642;1.9011527000002388;2539
643;1.9031603000003088;2539
644;1.9051550000003772;2539
645;1.9071295000003374;2539
646;1.90919329999997;2539
647;1.911184200000207;2538
648;1.9131334000003335;2539
649;1.9151324000004024;2539
650;1.917081500000677;2539
651;1.9190200000002733;2539
652;1.9210198999999193;2539
653;1.9230944999999338;2539
654;1.9250164000004588;2539
655;1.927005200000167;2539
656;1.929061000000729;2539
657;1.9311180000004242;2539
658;1.9331179000000702;2539
659;1.934999400000379;2539
660;1.9371454000001904;2539
661;1.9403362000002744;2539
662;1.9436752999999953;2538
663;1.9466706000002887;2538
664;1.9504712000007203;2539
665;1.953726600000664;2538
666;1.9577755000000252;2538
667;1.9617619999999079;2538
668;1.9657587000001513;2538
669;1.9692605000000185;2538
670;1.9726716000004672;2538
671;1.9756803999998738;2537
672;1.9797606000001906;2537
673;1.9836762000004455;2538
674;1.9877665000003617;2537
675;1.9917519999999058;2537
676;1.9957634000002145;2537
677;1.999704500000007;2537
678;2.0021309000003384;2536
679;2.0057290000004286;2537
680;2.009757400000126;2536
681;2.013761799999884;2536
682;2.017213200000697;2536
683;2.0201962000001004;2536
684;2.02215410000008;2536
685;2.024165300000277;2536
686;2.0261498999998366;2536
687;2.0281420000001162;2535
688;2.0301681999999346;2535
689;2.032139300000381;2535
690;2.0342116000001624;2534
691;2.036217800000486;2535
692;2.0392053000005035;2534
693;2.0411708999999973;2534
694;2.0431649000001926;2534
695;2.045176800000263;2534
696;2.0471630000001824;2534
697;2.049166600000717;2534
698;2.0511850000002596;2534
699;2.05319850000069;2534
700;2.0552057000004424;2534
701;2.057166900000084;2533
702;2.0591881000000285;2533
703;2.0611874000005628;2533
704;2.0642075000005207;2533
705;2.0661894000004395;2533
706;2.068191000000297;2533
707;2.0706700999999157;2533
708;2.0748985999998695;2533
709;2.0782136000007085;2532
710;2.0817403000000922;2532
711;2.085504800000308;2532
712;2.0884753000000273;2531
713;2.091519999999946;2531
714;2.0944419000006747;2531
715;2.0974518000002718;2531
716;2.1001641000002564;2530
717;2.1034569000003103;2530
