;time;amplitude
0;0.0050411000001986395;2422
1;0.010158099999898695;2421
2;0.01433530000031169;2419
3;0.019369300000107614;2418
4;0.024067000000286498;2417
5;0.028184499999952095;2416
6;0.03202880000026198;2414
7;0.03492279999954917;2413
8;0.037816799999745854;2412
9;0.04203030000007857;2412
10;0.04539839999961259;2411
11;0.04946139999992738;2410
12;0.05342339999970136;2408
13;0.05741109999962646;2408
14;0.06132940000043163;2407
15;0.06536030000006576;2406
16;0.06936609999957;2405
17;0.07295129999965866;2403
18;0.07737590000033379;2402
19;0.08139659999960713;2402
20;0.0853583999996772;2400
21;0.08880849999968632;2399
22;0.09338490000027377;2398
23;0.09733890000006795;2396
24;0.10139230000004318;2395
25;0.10479579999991984;2394
26;0.10938830000031885;2393
27;0.11319819999971514;2392
28;0.11723830000028101;2391
29;0.1212495999998282;2389
30;0.12520390000008774;2388
31;0.12925209999957588;2387
32;0.1332263000003877;2386
33;0.13723969999955443;2384
34;0.14015480000034586;2383
35;0.14424390000021958;2383
36;0.1482230999999956;2382
37;0.15181419999953505;2380
38;0.15466139999989537;2379
39;0.15776149999965128;2378
40;0.1611425999999483;2377
41;0.16476499999953376;2376
42;0.16818440000042756;2375
43;0.17178830000011658;2374
44;0.17483530000026803;2373
45;0.17782290000013745;2372
46;0.18084259999977803;2371
47;0.1838212000002386;2370
48;0.18671119999999064;2370
49;0.1896457000002556;2369
50;0.19291229999998905;2368
51;0.19615299999986746;2368
52;0.20024860000012268;2367
53;0.20420480000029784;2366
54;0.2071648000001005;2365
55;0.2112542000004396;2364
56;0.21519619999980932;2363
57;0.21921719999954803;2361
58;0.22376400000030117;2361
59;0.22717139999986102;2359
60;0.23123430000032386;2359
61;0.2352102000004379;2358
62;0.23865099999966333;2357
63;0.2421913999996832;2356
64;0.24620909999975993;2355
65;0.2502081000002363;2354
66;0.25363649999962945;2354
67;0.2569357000002128;2353
68;0.2601169999998092;2352
69;0.2631069999997635;2351
70;0.26612870000008115;2350
71;0.26883360000010725;2349
72;0.2715705999999045;2349
73;0.275172399999974;2348
74;0.2792171999999482;2347
75;0.28319250000004104;2346
76;0.28686970000035217;2345
77;0.29017490000023827;2345
78;0.29420740000023216;2344
79;0.2982101999996303;2343
80;0.30225379999956203;2343
81;0.3061550000002171;2342
82;0.3102078000001711;2341
83;0.3142117999996117;2340
84;0.3180712000003041;2340
85;0.3217610000001514;2339
86;0.3251639999998588;2338
87;0.3292050999998537;2338
88;0.3332037999998647;2337
89;0.3367361999999048;2336
90;0.34021519999987504;2335
91;0.34423470000001544;2335
92;0.34823429999960354;2334
93;0.35223409999980504;2334
94;0.35616750000008324;2333
95;0.3602344000000812;2332
96;0.36423050000030344;2331
97;0.3671666999998706;2330
98;0.37122199999976147;2330
99;0.37520949999998265;2329
100;0.3792413999999553;2328
101;0.3826523999996425;2327
102;0.38587420000021666;2326
103;0.3888755999996647;2326
104;0.3918666999998095;2326
105;0.3949038999999175;2325
106;0.397929099999601;2325
107;0.40090169999984937;2324
108;0.40392419999989215;2324
109;0.4069062999997186;2323
110;0.4099200999999084;2323
111;0.41263119999985065;2322
112;0.4158690000003844;2322
113;0.4188979999998992;2321
114;0.4219033999997919;2320
115;0.42489649999970425;2320
116;0.4278807999999117;2320
117;0.4309016999995947;2319
118;0.43389360000037414;2319
119;0.43689809999978024;2319
120;0.4399014000000534;2318
121;0.4428992000002836;2318
122;0.4466011000004073;2317
123;0.4497291999996378;2317
124;0.4524848999999449;2317
125;0.454478100000415;2316
126;0.45642359999965265;2316
127;0.4585063000004084;2316
128;0.4605412000000797;2315
129;0.46256110000012995;2315
130;0.46548799999982293;2314
131;0.4675569999999425;2314
132;0.46956200000022363;2314
133;0.4715753999998924;2314
134;0.47361259999979666;2314
135;0.47553809999953955;2314
136;0.4775577999998859;2313
137;0.47956450000037876;2313
138;0.48258979999991425;2313
139;0.4845732000003409;2313
140;0.48653529999955936;2313
141;0.48856230000001233;2312
142;0.4905455999996775;2312
143;0.4924954999996771;2312
144;0.49448949999987235;2312
145;0.49648789999992005;2312
146;0.49845530000038707;2312
147;0.5004644999999073;2312
148;0.5025057000002562;2311
149;0.5045497000000978;2311
150;0.506572999999662;2311
151;0.5086370999997598;2310
152;0.5106175999999323;2310
153;0.51252839999961;2310
154;0.5145370000000185;2310
155;0.5165649000000485;2310
156;0.5184257000000798;2310
157;0.5205337999996118;2309
158;0.5225106999996569;2309
159;0.5245489999997517;2309
160;0.5275046999995538;2309
161;0.5294807000000219;2309
162;0.531485900000007;2308
163;0.5335211999999956;2308
164;0.5353836000003867;2308
165;0.5374787999999171;2308
166;0.539552399999593;2308
167;0.5415297999998074;2307
168;0.5434783000000607;2307
169;0.5455696999997599;2307
170;0.5475477999998475;2306
171;0.5495085000002291;2306
172;0.5516122999997606;2306
173;0.5535054000001765;2306
174;0.5565709000002244;2306
175;0.5596208999995724;2306
176;0.5626203000001624;2306
177;0.5660451000003377;2306
178;0.5690625999995973;2305
179;0.5716236999996909;2305
180;0.5747388999998293;2305
181;0.5777570000000196;2305
182;0.5807776999999987;2305
183;0.5837881999996171;2305
184;0.5865213999995831;2305
185;0.5885581000002276;2305
186;0.5905040999996345;2305
187;0.5925311000000875;2305
188;0.5956198000003496;2305
189;0.5975234999996246;2305
190;0.6006206000001839;2305
191;0.6025831999995717;2305
192;0.6056565999997474;2305
193;0.6086246000004394;2305
194;0.6105778999999529;2305
195;0.6125491000002512;2305
196;0.614537499999642;2306
197;0.6176235000002634;2306
198;0.6207716999997501;2306
199;0.6240760999999111;2306
200;0.6270556999998007;2306
201;0.6300778000004357;2306
202;0.634118099999796;2305
203;0.6377211999997598;2306
204;0.6408051999997042;2306
205;0.6437622000003103;2306
206;0.6467843999998877;2306
207;0.6497706000000107;2305
208;0.6527867000004335;2306
209;0.6558052999998836;2306
210;0.6587868999995408;2306
211;0.6618093999995835;2306
212;0.6644704000000274;2306
213;0.6677834000001894;2306
214;0.6707524000003104;2306
215;0.6737960999998904;2306
216;0.6767662000002019;2306
217;0.6797686999998405;2306
218;0.6826945000002524;2306
219;0.6857700000000477;2307
220;0.6885800000000017;2307
221;0.6916221999999834;2306
222;0.6945771000000605;2307
223;0.6967297000001054;2307
224;0.6996084000002156;2307
225;0.7025467000003118;2307
226;0.705769500000315;2307
227;0.7086121000002095;2307
228;0.7116226999996798;2308
229;0.7146468000000823;2308
230;0.7176541999997426;2308
231;0.7206366999998863;2308
232;0.7239018999998734;2308
233;0.7282844000001205;2308
234;0.7322401000001264;2308
235;0.736242900000434;2308
236;0.7402681000003213;2308
237;0.74416999999994;2308
238;0.7482106999996176;2309
239;0.7521668999997928;2309
240;0.7557126000001517;2309
241;0.7587634000001344;2309
242;0.7620715000002747;2309
243;0.7649634999997943;2309
244;0.7679297000004226;2310
245;0.7708808999996108;2310
246;0.773877700000412;2310
247;0.7768815999997969;2310
248;0.7799052000000302;2310
249;0.7841749999997774;2310
250;0.7887188000004244;2311
251;0.79214839999986;2311
252;0.7962064000003011;2312
253;0.800168400000075;2312
254;0.8039196999998239;2313
255;0.8071331999999529;2313
256;0.8111829999998008;2314
257;0.8151815999999599;2315
258;0.8192176000002291;2315
259;0.8216662000004362;2316
260;0.8251288999999815;2316
261;0.8291826000004221;2317
262;0.8328072000003885;2318
263;0.8366690000002563;2318
264;0.8396301000002495;2318
265;0.8426233999998658;2318
266;0.8461421000001792;2319
267;0.8501564999996845;2319
268;0.8542355999998108;2320
269;0.8581688000003851;2320
270;0.8621849000001021;2320
271;0.8660343999999895;2321
272;0.8690918000002057;2321
273;0.8731866999996782;2321
274;0.8771700999996028;2322
275;0.8811859999996159;2322
276;0.8841076999997313;2322
277;0.8877267999996548;2323
278;0.891139899999871;2323
279;0.8951851000001625;2323
280;0.8991273999999976;2323
281;0.9021186999998463;2324
282;0.9061253999998371;2324
283;0.9101830999998128;2325
284;0.9137219000003824;2325
285;0.9171350999995411;2326
286;0.9210903000002872;2326
287;0.9251974999997401;2326
288;0.9290633000000525;2327
289;0.9321533000002091;2327
290;0.936169499999778;2328
291;0.9401858000001084;2329
292;0.9441876000000775;2330
293;0.9481986999999208;2330
294;0.9521937999998045;2331
295;0.9561451999998098;2331
296;0.960189100000207;2331
297;0.9641723000004276;2332
298;0.9681941999997434;2333
299;0.9716756999996505;2334
300;0.9751232999997228;2334
301;0.9781044999999722;2334
302;0.9821640999998635;2335
303;0.9861879000000044;2336
304;0.9901828000001842;2336
305;0.9941883999999845;2337
306;0.9981629000003522;2338
307;1.0021864999998797;2339
308;1.006152199999633;2340
309;1.0106753000000026;2340
310;1.0141028999996706;2341
311;1.018173399999796;2342
312;1.0217172000002392;2342
313;1.0251281000000745;2343
314;1.0291833999999653;2343
315;1.0330815999996048;2344
316;1.0372183999998015;2345
317;1.040578799999821;2346
318;1.0426257999997688;2346
319;1.0461636999998518;2347
320;1.050184800000352;2347
321;1.0542111000004297;2348
322;1.0581844999996974;2349
323;1.0621889000003648;2350
324;1.0660559999996622;2350
325;1.069075999999768;2351
326;1.0716738999999507;2351
327;1.0751028000004226;2352
328;1.0781029999998282;2352
329;1.0810849999998027;2353
330;1.0839279000001625;2354
331;1.0869564000004175;2355
332;1.0898668999998335;2355
333;1.0928680999995777;2356
334;1.0958823999999368;2357
335;1.0989188000003196;2357
336;1.1017338999999993;2358
337;1.1045960999999807;2359
338;1.1078998000002684;2359
339;1.1108906999997998;2360
340;1.113891599999988;2361
341;1.1169317000003502;2361
342;1.1198985999999422;2362
343;1.1228946999999607;2362
344;1.1258971999995993;2363
345;1.128896199999872;2364
346;1.1318939000002501;2364
347;1.134902200000397;2365
348;1.1376008999995975;2366
349;1.1408994000003077;2366
350;1.1438961000003474;2367
351;1.1469003000001976;2367
352;1.1496317000001;2368
353;1.1516448000002129;2369
354;1.1535954999999376;2369
355;1.1565923999996812;2370
356;1.1585942000001523;2370
357;1.1605648000004294;2370
358;1.1626007000004392;2371
359;1.1645705999999336;2371
360;1.166579400000046;2372
361;1.1685655999999653;2372
362;1.1706013000002713;2372
363;1.1725844000002326;2373
364;1.1746280999996088;2373
365;1.1776252999998178;2374
366;1.1795976000003066;2374
367;1.1816005000000587;2375
368;1.1836229000000458;2375
369;1.1856252999996286;2375
370;1.1886189999995622;2376
371;1.191609000000426;2377
372;1.1936033000001771;2377
373;1.1956472000001668;2378
374;1.1976349999995364;2378
375;1.199595500000214;2379
376;1.2016075999999885;2379
377;1.2046312000002217;2380
378;1.2081648000003042;2381
379;1.2119008999998186;2381
380;1.2146941999999399;2382
381;1.2181601000002047;2383
382;1.2216656999999032;2384
383;1.2248743000000104;2385
384;1.2288845000002766;2386
385;1.2316688000000795;2387
386;1.2348425999998653;2387
387;1.237441299999773;2388
388;1.2406780000001163;2389
389;1.2436827999999878;2390
390;1.246643800000129;2391
391;1.249669200000426;2391
392;1.2526575000001685;2392
393;1.2546214000003602;2393
394;1.257852699999603;2393
395;1.260742399999799;2394
396;1.2640451999996003;2395
397;1.2670002000004388;2395
398;1.2699405000003026;2396
399;1.2729043999997884;2397
400;1.2758567999999286;2398
401;1.2788624000004347;2399
402;1.2818758000003072;2400
403;1.2848685999997542;2401
404;1.2876587000000654;2402
405;1.2909060000001773;2403
406;1.2939071000000695;2404
407;1.296908500000427;2404
408;1.2999061000000438;2405
409;1.3029249999999593;2405
410;1.305907400000251;2406
411;1.3089085000001432;2407
412;1.3119063000003734;2407
413;1.3149212999996962;2408
414;1.3179077000004327;2408
415;1.3207148999999845;2409
416;1.3239319000003889;2410
417;1.32691049999994;2411
418;1.329905300000064;2412
419;1.3328813999996783;2412
420;1.3359081999997215;2413
421;1.338955199999873;2414
422;1.3419291000000158;2415
423;1.3449296999997387;2415
424;1.3479065999999875;2415
425;1.3506023999998433;2416
426;1.3539394999997967;2417
427;1.3569275999998354;2417
428;1.3599345000002359;2418
429;1.3629338000000644;2419
430;1.3657669000003807;2419
431;1.3689408999998705;2420
432;1.3719245000002047;2421
433;1.374922300000435;2422
434;1.3779066999995848;2423
435;1.3809018000001743;2423
436;1.383921100000407;2425
437;1.3869002000001274;2425
438;1.3898998000004212;2426
439;1.3928970999995727;2427
440;1.3958919999995487;2428
441;1.3988834000001589;2428
442;1.4018992000001163;2429
443;1.4046691000003193;2430
444;1.4079178000001775;2430
445;1.4109219000001758;2431
446;1.4139255000000048;2432
447;1.4169277000000875;2433
448;1.41992719999962;2434
449;1.4229195999996591;2435
450;1.425921500000186;2435
451;1.4285765000004176;2436
452;1.4319087000003492;2437
453;1.4349103000004106;2438
454;1.4376322999996773;2439
455;1.440923400000429;2439
456;1.4439339999998992;2440
457;1.4469208000000435;2440
458;1.449919200000295;2441
459;1.452894400000332;2442
460;1.4559182000002693;2442
461;1.4589089999999487;2443
462;1.4619253000000754;2444
463;1.4649023000001762;2445
464;1.4679245999996056;2446
465;1.470661100000143;2447
466;1.4739219000002777;2448
467;1.4769082000002527;2449
468;1.4799161999999342;2449
469;1.4827726000003167;2450
470;1.4858956999996735;2451
471;1.4889272999998866;2451
472;1.4916970000003857;2452
473;1.4949223000003258;2453
474;1.497923300000366;2454
475;1.500924799999666;2454
476;1.5039318999997704;2455
477;1.5068287000003693;2456
478;1.5085157000003164;2456
479;1.5109039999997549;2457
480;1.513902099999541;2458
481;1.5168985999998768;2459
482;1.5199406000001545;2460
483;1.5225312000002305;2460
484;1.5259323999998742;2461
485;1.528920400000061;2462
486;1.531915300000037;2462
487;1.5349284000003536;2463
488;1.5376101000001654;2464
489;1.540916500000094;2464
490;1.5439153999996051;2465
491;1.5469245000003866;2466
492;1.5499212000004263;2467
493;1.55291810000017;2468
494;1.5566611000003832;2469
495;1.559920499999862;2470
496;1.5629257000000507;2470
497;1.565924599999562;2471
498;1.5689181999996435;2472
499;1.571925299999748;2473
500;1.5749150000001464;2474
501;1.5779187999996793;2475
502;1.5809170000002268;2475
503;1.5839193000001615;2476
504;1.5866280000000188;2477
505;1.5889343999997436;2477
506;1.5919207999995706;2478
507;1.5949239999999918;2479
508;1.597919400000137;2479
509;1.6009538999996948;2480
510;1.6039340999996057;2481
511;1.606919900000321;2482
512;1.6099256999996214;2483
513;1.612924799999746;2484
514;1.615924300000188;2484
515;1.618923299999551;2485
516;1.621908699999949;2485
517;1.6249190999997154;2486
518;1.6279261999998198;2487
519;1.6309230999995634;2488
520;1.6338097999996535;2488
521;1.636888199999703;2489
522;1.6399299000004248;2490
523;1.6429176999999981;2491
524;1.6459105000003547;2491
525;1.6489180999997188;2492
526;1.651929999999993;2493
527;1.654761900000267;2493
528;1.6579191999999239;2494
529;1.6609058000003643;2495
530;1.6638734999996814;2495
531;1.666923499999939;2496
532;1.6699222999995982;2497
533;1.6729222000003574;2497
534;1.6759184000002278;2498
535;1.6789323000002696;2498
536;1.6819283000004361;2499
537;1.6849221000002217;2499
538;1.6876122000003306;2500
539;1.6909091999996235;2500
540;1.693930100000216;2501
541;1.6969245999998748;2501
542;1.6999213999997664;2502
543;1.7029211999997642;2502
544;1.7059195000001637;2503
545;1.70890640000016;2503
546;1.7119177000004129;2504
547;1.714922099999967;2504
548;1.7179187000001548;2505
549;1.7205940000003466;2505
550;1.7239270999998553;2506
551;1.7269114999999147;2507
552;1.7299148000001878;2507
553;1.7329318000001876;2507
554;1.7359341000001223;2508
555;1.7389108999996097;2509
556;1.741894499999944;2510
557;1.7446756999997888;2510
558;1.746603700000378;2510
559;1.7486247999995612;2511
560;1.7505819999996675;2511
561;1.75294649999978;2512
562;1.755796399999781;2512
563;1.7586381000000983;2513
564;1.7616915999997218;2514
565;1.7646523000003072;2515
566;1.7676228999998784;2515
567;1.770521600000393;2516
568;1.773798700000043;2517
569;1.776787200000399;2517
570;1.7798220000004221;2518
571;1.7827693999997791;2519
572;1.7858398999997007;2519
573;1.7889420999999857;2520
574;1.7919220000003406;2521
575;1.7949202999998306;2521
576;1.797910199999933;2521
577;1.8008867999997165;2522
578;1.8037698999996792;2522
579;1.8067973999995957;2523
580;1.8098430000000008;2524
581;1.8128642000001491;2524
582;1.8158678999998301;2525
583;1.818916199999876;2525
584;1.821916400000191;2526
585;1.8249480000004041;2526
586;1.827980299999581;2527
587;1.830920000000333;2527
588;1.8339136000004146;2528
589;1.8367122999998173;2528
590;1.8399207000002207;2528
591;1.842942199999925;2529
592;1.845966199999566;2530
593;1.848923200000172;2530
594;1.8519427000001087;2530
595;1.8547686000001704;2531
596;1.8579231000003347;2531
597;1.8609189999997398;2531
598;1.8639110000003711;2532
599;1.866953800000374;2532
600;1.8699494000002232;2533
601;1.8729467000002842;2533
602;1.8759544000004098;2534
603;1.8789526000000478;2534
604;1.8819141000003583;2534
605;1.885767699999633;2534
606;1.888947200000075;2534
607;1.8919294999996055;2535
608;1.8949242999997296;2535
609;1.8979269000001295;2536
610;1.9009757000003447;2536
611;1.9039142999999967;2536
612;1.906913099999656;2537
613;1.909917900000437;2537
614;1.9129302999999709;2537
615;1.9156937999996444;2537
616;1.9189192000003459;2538
617;1.9219445999997333;2538
618;1.9249465000002601;2539
619;1.9279765000001134;2539
620;1.9306957999997394;2539
621;1.9337993999997707;2540
622;1.936797899999874;2540
623;1.9398035000003802;2540
624;1.9428459999999177;2541
625;1.945855400000255;2541
626;1.9488123000000996;2541
627;1.951810900000055;2541
628;1.9547383999997692;2542
629;1.9578161999997974;2543
630;1.9608329000002414;2543
631;1.9638057000001936;2543
632;1.9668135000001712;2544
633;1.96984220000013;2544
634;1.972800599999573;2544
635;1.9758142999999109;2544
636;1.978774600000179;2544
637;1.981797600000391;2544
638;1.9848083999995652;2545
639;1.987693400000353;2545
640;1.9908292999998594;2546
641;1.9937403000003542;2546
642;1.9968503999998575;2547
643;1.9998506000001726;2547
644;2.0028517000000647;2547
645;2.0058435999999347;2547
646;2.008703299999979;2547
647;2.0117756999998164;2547
648;2.0147711999998137;2547
649;2.018167700000049;2547
650;2.0218753999997716;2548
651;2.0257824999998775;2549
652;2.0288205999995625;2549
653;2.031827699999667;2549
654;2.034739599999739;2549
655;2.037702800000261;2549
656;2.0406337000003987;2549
657;2.0437902000003305;2549
658;2.0471262999999453;2549
659;2.0512222999996084;2549
660;2.054849099999956;2550
661;2.0581472000003487;2550
662;2.0622127999995428;2550
663;2.0661903999998685;2550
664;2.0703794000000926;2549
665;2.074248300000363;2549
666;2.0782855999996173;2549
667;2.0822645999996894;2550
668;2.0862442999996347;2550
669;2.0892180999999255;2550
670;2.0932770999997956;2550
671;2.0972695999998905;2549
672;2.101241399999708;2549
673;2.106027699999686;2549
674;2.1102952000001096;2550
675;2.114255100000264;2550
676;2.118299200000365;2550
677;2.1220406000002185;2549
678;2.126285899999857;2549
679;2.1302431000003708;2549
680;2.1342420999999376;2549
681;2.137267299999621;2549
682;2.1412813999995706;2549
683;2.1452562000004036;2549
684;2.149065100000371;2549
685;2.153263000000152;2548
686;2.156193499999972;2548
687;2.1602578000001813;2548
688;2.1642144999996162;2548
689;2.1682788999996774;2548
690;2.1720124000003125;2548
691;2.176274399999784;2547
692;2.1802638999997725;2547
693;2.1842561000003116;2547
694;2.1878325999996378;2547
695;2.191186099999868;2547
696;2.1952782999997;2547
697;2.199140400000033;2547
698;2.2032834000001458;2546
699;2.206199799999922;2547
700;2.2102787000003445;2547
701;2.2138347999998587;2546
702;2.216926600000079;2547
703;2.2199827000004007;2547
704;2.222945599999548;2546
705;2.225970700000289;2546
706;2.228666599999997;2546
707;2.2319503999997323;2546
708;2.234855200000311;2546
709;2.2377143000003343;2546
710;2.240936799999872;2546
711;2.243945299999723;2546
712;2.2470327000000907;2546
713;2.2499508000000787;2546
714;2.2529531000000134;2546
715;2.255980900000395;2546
716;2.258984899999632;2545
717;2.2619284000002153;2545
718;2.2647907000000487;2545
