;time;amplitude
0;0.0029888000008213567;3250
1;0.0070756000004621455;3270
2;0.010086199999932433;3294
3;0.01270959999965271;3311
4;0.015926000000035856;3328
5;0.01911660000041593;3348
6;0.022779800001444528;3369
7;0.02683660000002419;3391
8;0.029631700001118588;3411
9;0.033068300001104944;3431
10;0.037067799999931594;3452
11;0.04113900000083959;3476
12;0.044790800000555464;3499
13;0.04869030000008934;3524
14;0.051720299999942654;3540
15;0.05468240000118385;3558
16;0.05761549999988347;3574
17;0.060650400000668014;3590
18;0.0635751000008895;3608
19;0.0655893000002834;3622
20;0.06874400000015157;3635
21;0.07214190000013332;3654
22;0.07589010000083363;3672
23;0.07968220000111614;3694
24;0.08296280000104161;3714
25;0.08586060000016005;3729
26;0.0889126000001852;3744
27;0.09196189999966009;3761
28;0.09459369999967748;3777
29;0.09755399999994552;3788
30;0.10059720000026573;3804
31;0.10359360000074957;3820
32;0.10708960000010848;3836
33;0.11120440000013332;3856
34;0.11397890000080224;3873
35;0.11699880000014673;3889
36;0.1199956000000384;3904
37;0.12300500000128523;3918
38;0.1259996000007959;3932
39;0.12967480000042997;3948
40;0.13316850000046543;3965
41;0.13705649999974412;3982
42;0.1402185000006284;3996
43;0.14370039999994333;4014
44;0.14669880000110425;4028
45;0.1498280000014347;4043
46;0.15282160000060685;4056
47;0.15582910000011907;4068
48;0.15893660000074306;4082
49;0.16263559999970312;4098
50;0.16564090000065335;4109
51;0.16880769999988843;4122
52;0.1717004000001907;4134
53;0.17481880000013916;4146
54;0.1778186999999889;4157
55;0.18070740000075602;4170
56;0.18367580000085582;4181
57;0.18670949999977893;4192
58;0.1897036999998818;4204
59;0.1925563000004331;4214
60;0.19583170000078098;4225
61;0.1987903000008373;4237
62;0.20171529999970517;4246
63;0.2048305000007531;4256
64;0.20766770000045653;4265
65;0.21066650000102527;4272
66;0.21376150000105554;4281
67;0.21677570000065316;4288
68;0.21982329999991634;4294
69;0.22280070000124397;4300
70;0.2258044999998674;4305
71;0.22881100000086008;4309
72;0.23174140000082843;4312
73;0.23480730000119365;4314
74;0.23779990000002726;4316
75;0.24082260000068345;4317
76;0.24380910000036238;4317
77;0.24683900000127323;4316
78;0.24975780000022496;4314
79;0.25277830000050017;4311
80;0.25584040000103414;4308
81;0.25877850000142644;4304
82;0.26158440000108385;4300
83;0.2647777000001952;4294
84;0.26778030000059516;4288
85;0.27059639999970386;4280
86;0.2738329000003432;4274
87;0.27679080000052636;4265
88;0.27969260000099894;4257
89;0.2827327000013611;4247
90;0.28573140000116837;4238
91;0.2887375999998767;4229
92;0.2918344999998226;4220
93;0.29457390000061423;4209
94;0.2976952999997593;4199
95;0.30069170000024315;4189
96;0.303839500000322;4179
97;0.3068209000011848;4167
98;0.30981550000069547;4154
99;0.3128372000010131;4145
100;0.31582239999988815;4133
101;0.318568900000173;4120
102;0.32182450000073004;4111
103;0.32478420000006736;4098
104;0.3277522999997018;4085
105;0.3307302000011987;4074
106;0.3335588000009011;4061
107;0.33678560000043944;4049
108;0.33969210000032035;4034
109;0.3426883000011003;4022
110;0.34583589999965625;4008
111;0.3489588000011281;3995
112;0.3518346000000747;3980
113;0.35483080000085465;3966
114;0.35778449999997974;3952
115;0.3608062000002974;3938
116;0.3638059000004432;3925
117;0.3668104000007588;3911
118;0.36982239999997546;3895
119;0.3728062999998656;3880
120;0.375760300001275;3867
121;0.37880650000079186;3853
122;0.3826476000012917;3834
123;0.3856783999999607;3819
124;0.3888103000008414;3804
125;0.3917840000012802;3788
126;0.39459979999992356;3772
127;0.3976216999999451;3758
128;0.40081670000108716;3743
129;0.4037867000006372;3726
130;0.4066689999999653;3709
131;0.409800900000846;3694
132;0.4126857999999629;3679
133;0.4158115000009275;3663
134;0.4188365000009071;3644
135;0.42182320000028994;3627
136;0.4248055000007298;3611
137;0.42776690000027884;3597
138;0.43081330000131857;3580
139;0.43367760000001;3562
140;0.43668220000108704;3547
141;0.4396617000002152;3531
142;0.4426402000008238;3514
143;0.44559819999994943;3499
144;0.44854880000093544;3481
145;0.451815100001113;3463
146;0.45481130000007397;3443
147;0.4578277000000526;3426
148;0.46058129999983066;3408
149;0.46364250000078755;3393
150;0.46666580000055546;3375
151;0.4696815000006609;3356
152;0.47272370000064257;3340
153;0.4757030000000668;3322
154;0.4785671000008733;3305
155;0.4816465000003518;3289
156;0.48468940000020666;3270
157;0.4876665000010689;3250
158;0.4906453000003239;3233
159;0.49368150000009337;3215
160;0.49681430000055116;3196
161;0.4998090000008233;3177
162;0.5028087999999116;3158
163;0.5058766000001924;3140
164;0.5088255999999092;3121
165;0.5115609000004042;3103
166;0.5148351999996521;3085
167;0.517829399999755;3065
168;0.5207872000009957;3046
169;0.5237867000014376;3028
170;0.5267899000009493;3009
171;0.529838500000551;2991
172;0.5327969000009034;2971
173;0.535785300000498;2952
174;0.5388069000000542;2933
175;0.5414964000010514;2913
176;0.544597199999771;2897
177;0.5478178000012122;2876
178;0.5508030000000872;2855
179;0.5538151000000653;2836
180;0.5568069000000833;2816
181;0.5598129000009067;2797
182;0.5627718000014283;2779
183;0.5657701000000088;2759
184;0.5687655000001541;2740
185;0.5717063000010967;2720
186;0.5747105999998894;2701
187;0.5776714000003267;2682
188;0.5808084000000235;2663
189;0.5837876000005053;2641
190;0.5867804999998043;2622
191;0.5897235000011278;2602
192;0.5928357000011601;2584
193;0.5957371000004059;2562
194;0.5986876000006305;2544
195;0.6016968000003544;2524
196;0.6046452999999019;2504
197;0.6078171999997721;2485
198;0.6108025000012276;2462
199;0.6138163000014174;2444
200;0.6168094000004203;2423
201;0.619537800001126;2404
202;0.6228181000005861;2388
203;0.6258123999996315;2366
204;0.6288487000001624;2347
205;0.6318217999996705;2327
206;0.6348021000012523;2308
207;0.6377714000009291;2289
208;0.640830600001209;2268
209;0.6438393999997061;2250
210;0.6468332000004011;2232
211;0.6497892000006686;2211
212;0.6528484999998909;2192
213;0.6557927000012569;2171
214;0.6587411000000429;2152
215;0.6615990999998758;2133
216;0.6648008000011032;2116
217;0.6678501000005781;2095
218;0.6708138000012696;2075
219;0.6738070999999763;2056
220;0.676802800000587;2037
221;0.6798393000008218;2019
222;0.6826037999999244;1997
223;0.6858107000007294;1978
224;0.6888252000007924;1959
225;0.6918356000005588;1938
226;0.6945826000010129;1919
227;0.6977720000013505;1903
228;0.7008286000000226;1881
229;0.703780400001051;1863
230;0.706777700001112;1844
231;0.7098339000003762;1825
232;0.7126791999999114;1807
233;0.7158364000006259;1788
234;0.7188341000000946;1766
235;0.721794700000828;1750
236;0.7247935000013968;1730
237;0.7276361000003817;1712
238;0.7308365999997477;1695
239;0.7336816000006365;1674
240;0.7366966999998112;1656
241;0.7397661000013613;1638
242;0.7427557000009983;1620
243;0.7458251999996719;1601
244;0.7488458000007086;1581
245;0.7518126000013581;1565
246;0.7548265000004903;1547
247;0.7578258000012283;1527
248;0.7606708000002982;1510
249;0.763721400000577;1494
250;0.7667068000009749;1476
251;0.7698319000010088;1459
252;0.7727898000011919;1442
253;0.7757505999998102;1425
254;0.7788393000009819;1408
255;0.7817948000010801;1391
256;0.7848346000009769;1375
257;0.7877989000007801;1357
258;0.7906601000013325;1340
259;0.7938374000004842;1325
260;0.7968127000003733;1309
261;0.7998335000011139;1292
262;0.8027651000011247;1275
263;0.8058115000003454;1260
264;0.8087363000013283;1243
265;0.8116155999996408;1228
266;0.8146960000012768;1212
267;0.8177193000010448;1196
268;0.8206841000010172;1182
269;0.8235445000009349;1166
270;0.8266813000009279;1153
271;0.8298379999996541;1136
272;0.8328254000007291;1120
273;0.8358437000006234;1105
274;0.838802600001145;1090
275;0.841747899999973;1076
276;0.8445874999997613;1063
277;0.847833100000571;1049
278;0.8508290000008856;1033
279;0.8538291000004392;1018
280;0.8568427999998676;1006
281;0.8598312000012811;991
282;0.8628389000004972;979
283;0.8658403999997972;964
284;0.8688357999999425;951
285;0.8718291000004683;938
286;0.8748367999996844;923
287;0.8775636999998824;910
288;0.8808260000005248;901
289;0.8838379999997414;886
290;0.886571200000617;874
291;0.8885516000009375;864
292;0.8915178000006563;856
293;0.8944320000009611;844
294;0.8965829999997368;832
295;0.8985214000003907;824
296;0.9016117999999551;816
297;0.9036087000004045;805
298;0.9055507000011858;797
299;0.9086141999996471;790
300;0.911391999999978;778
301;0.9135759000000689;768
302;0.9166001000012329;760
303;0.9185254000003624;750
304;0.9216076000011526;743
305;0.9246528000003309;732
306;0.9277099000009912;723
307;0.9322690999997576;710
308;0.9357471000002988;697
309;0.9401481000004424;685
310;0.944200500000079;673
311;0.9470751000008022;665
312;0.9506101000006311;656
313;0.9525642000007792;649
314;0.9545374000008451;645
315;0.9565182000005734;641
316;0.958550400000604;637
317;0.960510200000499;633
318;0.9625345000004017;630
319;0.9644750000006752;627
320;0.9664857000007032;624
321;0.9684887000003073;622
322;0.9705088999999134;619
323;0.9725103000000672;617
324;0.9744960000007268;616
325;0.9765079000007972;614
326;0.9784810000001016;613
327;0.9803824999999051;613
328;0.9826133000005939;612
329;0.9854875000000902;612
330;0.9875024000011763;613
331;0.9895010000000184;613
332;0.9914936000004673;614
333;0.9935242000010476;616
334;0.9954491000007692;617
335;0.9985910000013973;619
336;1.0015720000010333;623
337;1.0035760999999184;627
338;1.0065704999997251;630
339;1.0095319000010932;636
340;1.0115708000012091;641
341;1.0135620000000927;645
342;1.015570999999909;649
343;1.017574000001332;654
344;1.0195746000008512;659
345;1.0215724000008777;664
346;1.0235962000006111;669
347;1.0255754999998317;675
348;1.0286056000004464;681
349;1.0305574000012712;688
350;1.0335754999996425;695
351;1.0355248000014399;703
352;1.0375273999998171;710
353;1.039531000000352;716
354;1.0415692000005947;723
355;1.0443683000012243;730
356;1.0464104000002408;737
357;1.0483952000013232;744
358;1.0503977999997005;751
359;1.0523056000001816;759
360;1.0543022000001656;764
361;1.0565365000002203;771
362;1.0585308000008808;780
363;1.0605310000009922;787
364;1.062547800000175;795
365;1.0644322000007378;802
366;1.0663605999998254;809
367;1.0684476000005816;817
368;1.0703688000012335;824
369;1.0723620999997365;831
370;1.0742674000011903;838
371;1.0762988000005862;845
372;1.0782940999997663;853
373;1.080278500001441;861
374;1.0823830000008456;869
375;1.0844238000008772;879
376;1.0864046000006056;888
377;1.0883427000007941;895
378;1.090366600001289;904
379;1.092527599999812;912
380;1.0954658000009658;922
381;1.097465500000908;933
382;1.0994570000002568;942
383;1.1014345000003232;950
384;1.1032831000011356;958
385;1.1052722000003996;966
386;1.107281200000216;975
387;1.109274500000538;984
388;1.1112893000008626;992
389;1.113263299999744;1001
390;1.115270899999814;1011
391;1.1172782000012376;1020
392;1.1193978999999672;1029
393;1.121483700000681;1039
394;1.123564900000929;1050
395;1.1265621000002284;1061
396;1.1285563000001275;1074
397;1.1305419000000256;1083
398;1.1325500000002648;1093
399;1.1345500000006723;1102
400;1.136536600000909;1112
401;1.1385609999997541;1122
402;1.1415601999997307;1132
403;1.1445061000013084;1147
404;1.1465371000012965;1162
405;1.1495468000011897;1174
406;1.1514781000005314;1187
407;1.1534379000004265;1197
408;1.1565853000010975;1211
409;1.1584937999996328;1223
410;1.1605001000007178;1233
411;1.1624289999999746;1243
412;1.1646775999997772;1254
413;1.1676775000014459;1266
414;1.1706926000006206;1283
415;1.1735490999999456;1298
416;1.1754822000002605;1313
417;1.1785768999998254;1325
418;1.1815707000005204;1342
419;1.1834956000002421;1357
420;1.1853964000001724;1368
421;1.1875689000007696;1379
422;1.1895404000006238;1390
423;1.191483500000686;1402
424;1.1944049000012456;1414
425;1.1965185000008205;1430
426;1.1995585000004212;1442
427;1.2013741000009759;1459
428;1.2035754999997152;1469
429;1.205507900000157;1481
430;1.207479400000011;1493
431;1.2095595999999205;1505
432;1.2126180000013846;1517
433;1.2160359000008611;1537
434;1.2190468999997393;1556
435;1.2228587999998126;1576
436;1.2258563000013964;1597
437;1.2286946000003809;1614
438;1.2317626000003656;1630
439;1.2347418000008474;1650
440;1.2377381000005698;1669
441;1.2407548999999563;1686
442;1.2437320000008185;1704
443;1.2467367999997805;1721
444;1.249735999999757;1742
445;1.2527448000000732;1760
446;1.2557391000009375;1777
447;1.2587622000010015;1797
448;1.2617562000014004;1815
449;1.2646977000003972;1835
450;1.2676602999999886;1854
451;1.270999500000471;1870
452;1.2755524000003788;1896
453;1.2791167000013957;1925
454;1.28309740000077;1949
455;1.2874962000005326;1974
456;1.2911201000006258;2002
457;1.2951178000002983;2025
458;1.2992258000012953;2051
459;1.3034308000005694;2077
460;1.3073153000004822;2102
461;1.311393500000122;2127
462;1.3152566999997362;2153
463;1.3191217000003235;2181
464;1.3232250000000931;2203
465;1.3272672000002785;2229
466;1.3311909000003652;2256
467;1.3351801999997406;2282
468;1.3391487000008055;2308
469;1.3427743000011105;2333
470;1.3461162000003242;2357
471;1.3502072999999655;2378
472;1.3541741999997612;2406
473;1.358073900000818;2431
474;1.3616634999998496;2457
475;1.364919200001168;2481
476;1.3679268000014417;2501
477;1.3708907000000181;2521
478;1.3737954000007448;2541
479;1.3768797000011546;2559
480;1.3798351000004914;2579
481;1.3828697000008106;2598
482;1.3858274000012898;2620
483;1.3888242000011815;2637
484;1.391835300000821;2656
485;1.394639800000732;2677
486;1.3978602000006504;2696
487;1.4008591000001616;2716
488;1.4038538000004337;2738
489;1.4068419000013819;2755
490;1.4098597000011068;2775
491;1.4128596000009566;2793
492;1.4158669000007649;2814
493;1.4188522000004014;2836
494;1.4216465999998036;2855
495;1.424835499999972;2871
496;1.4276158000011492;2893
497;1.4308540000001813;2911
498;1.4338630000002013;2931
499;1.436624900001334;2951
500;1.4398349000002781;2969
501;1.442863899999793;2991
502;1.445855699999811;3009
503;1.4488589000011416;3030
504;1.4518817999996827;3049
505;1.4545413000014378;3064
506;1.4576487000013003;3082
507;1.4608380000008765;3105
508;1.4638571000014053;3122
509;1.4668572999999014;3142
510;1.4698559999997087;3159
511;1.4728584000004048;3179
512;1.475868999999875;3200
513;1.4788745000005292;3217
514;1.4818555000001652;3238
515;1.4856220000001485;3259
516;1.4886249000010139;3276
517;1.4914846000010584;3294
518;1.493484599999647;3310
519;1.4954429999997956;3322
520;1.4974608000011358;3334
521;1.4993332000012742;3347
522;1.5014288000002125;3357
523;1.5035340000013093;3370
524;1.5054799000008643;3382
525;1.5075405000006867;3395
526;1.5098211000004085;3407
527;1.512819400000808;3420
528;1.5154278999998496;3440
529;1.5177456000001257;3454
530;1.520842800000537;3470
531;1.5238328000014008;3486
532;1.5268415000009554;3504
533;1.5298333000009734;3520
534;1.5328276000000187;3538
535;1.5358171000007133;3554
536;1.5388204000009864;3571
537;1.5418485999998666;3588
538;1.5443757000011828;3605
539;1.5466682000005676;3619
540;1.5496638000004168;3632
541;1.552651699999842;3649
542;1.5556549000011728;3665
543;1.558641000001444;3681
544;1.5616709000005358;3697
545;1.5647871000001032;3714
546;1.5677950000008423;3731
547;1.5705585000014253;3747
548;1.5738529000009294;3761
549;1.5768304000011995;3778
550;1.5798308000012184;3792
551;1.5828242999996291;3809
552;1.5858545999999478;3824
553;1.5888272000011057;3839
554;1.5918328999996447;3855
555;1.5945728000006056;3869
556;1.5978312000006554;3882
557;1.6008209999999963;3899
558;1.6038399999997637;3913
559;1.606828800000585;3928
560;1.6095765000009123;3941
561;1.6128287999999884;3953
562;1.6158329000008962;3970
563;1.6188328999996884;3983
564;1.6218279000004259;3997
565;1.6247777999997197;4010
566;1.6275536000011925;4024
567;1.63082360000044;4036
568;1.633834400001433;4051
569;1.6368314000010287;4063
570;1.639824600000793;4076
571;1.6428408000010677;4088
572;1.645834200000536;4101
573;1.6488217000005534;4113
574;1.6518231999998534;4126
575;1.6548382000000856;4137
576;1.6578244000011182;4149
577;1.6607319000013376;4162
578;1.663832000000184;4173
579;1.6668231000003289;4185
580;1.669827700001406;4195
581;1.6728373000005377;4206
582;1.6758315000006405;4217
583;1.6788343999996869;4228
584;1.681830000001355;4238
585;1.6848324000002322;4247
586;1.6875546999999642;4256
587;1.6908407000009902;4265
588;1.6938250000002881;4274
589;1.6968206000001373;4282
590;1.699822900000072;4289
591;1.7028355000002193;4295
592;1.7058374999996886;4301
593;1.7088284000001295;4305
594;1.7118304000014177;4309
595;1.7148403999999573;4313
596;1.717829500001244;4315
597;1.7208325999999943;4317
598;1.7238414000003104;4318
599;1.7268204000010883;4318
600;1.729822299999796;4317
601;1.7328268000001117;4316
602;1.7358265000002575;4313
603;1.738823499999853;4310
604;1.741835099999662;4306
605;1.744555200000832;4301
606;1.7478244000012637;4296
607;1.7506265000010899;4289
608;1.7538251000005403;4284
609;1.7568231000004744;4276
610;1.7598369000006642;4268
611;1.7628407000011066;4260
612;1.7658289999999397;4250
613;1.7688006999997015;4241
614;1.7718471999996837;4231
615;1.7748286000005464;4221
616;1.7775557000004483;4211
617;1.7808363000003737;4202
618;1.7838236999996298;4190
619;1.7868238000010024;4179
620;1.789823900000556;4168
621;1.7928401000008307;4158
622;1.7958286000011867;4147
623;1.7988008000011178;4135
624;1.8017736000001605;4123
625;1.8048240000007354;4112
626;1.8078350000014325;4101
627;1.810701500000505;4089
628;1.8135984000000462;4077
629;1.816835200001151;4065
630;1.8198358000008739;4051
631;1.8228269999999611;4039
632;1.8258225999998103;4026
633;1.8287204000007478;4013
634;1.8318233999998483;4001
635;1.8347954000000755;3987
636;1.8378355000004376;3973
637;1.8408355000010488;3960
638;1.843816100001277;3946
639;1.846830399999817;3932
640;1.8498249000003852;3918
641;1.8528328000011243;3904
642;1.8558399000012287;3889
643;1.8588271000007808;3876
644;1.861679900001036;3862
645;1.864840300000651;3847
646;1.8678252000008797;3831
647;1.8708287999997992;3816
648;1.8738372000007075;3802
649;1.8768287000002601;3786
650;1.8798299999998562;3771
651;1.8828236000008474;3756
652;1.8858299000003171;3741
653;1.8888223000012658;3725
654;1.8915806000004523;3710
655;1.8945727000009356;3696
656;1.8978364000013244;3679
657;1.9008231999996497;3661
658;1.9038293000012345;3646
659;1.9067967999999382;3630
660;1.909826900000553;3613
661;1.9128345999997691;3600
662;1.915827500000887;3582
663;1.9188358999999764;3566
664;1.9218378000005032;3549
665;1.9256904000012582;3527
666;1.928830000000744;3510
667;1.9318281000014395;3492
668;1.934762500000943;3475
669;1.937839800000802;3459
670;1.9408265000001848;3442
671;1.9438853000010567;3424
672;1.9468433000001824;3405
673;1.9498309000009613;3388
674;1.9528236000005563;3371
675;1.9555883000011818;3354
676;1.9588128000013967;3338
677;1.9616728000000876;3316
678;1.9662389000004623;3296
679;1.9702654000011535;3271
680;1.9728599000009126;3249
681;1.9771602000000712;3229
682;1.9811374000000797;3205
683;1.9850416999997833;3180
684;1.9879251000002114;3157
685;1.9921277000012196;3137
686;1.9961034000007203;3111
687;2.000149400000737;3087
688;2.0041409000004933;3062
689;2.008129600000757;3037
690;2.011746400001357;3013
691;2.0150579000001017;2989
692;2.01759740000125;2970
693;2.0208003999996436;2956
694;2.0238270000008924;2933
695;2.0268355999996857;2915
696;2.029886100001022;2896
697;2.032717000000048;2878
698;2.035841300001266;2857
699;2.038601500000368;2839
700;2.0418316000013874;2820
701;2.0445240999997623;2799
702;2.047835200000918;2782
703;2.0504692000013165;2762
704;2.0528307000004133;2746
705;2.0558318000003055;2728
706;2.0588263000008737;2709
707;2.0615897999996378;2690
708;2.0648238000012498;2672
709;2.067770900001051;2652
710;2.0707665999998426;2633
711;2.073789800000668;2613
712;2.0765592999996443;2594
713;2.0786836000006588;2577
714;2.081713400000808;2561
715;2.084660200000144;2541
716;2.0876495000011346;2522
717;2.090640300000814;2504
718;2.093667099999948;2484
719;2.0967913000004046;2465
720;2.0998236000014003;2444
