;time;amplitude
0;0.004079000000274391;2457
1;0.0080206000002363;2457
2;0.012100500000087777;2457
3;0.016066400001363945;2458
4;0.020119600001635263;2458
5;0.023958200001288787;2459
6;0.028105700001106015;2459
7;0.03186980000100448;2460
8;0.03614740000011807;2461
9;0.03838510000059614;2461
10;0.04160020000017539;2461
11;0.04460550000112562;2462
12;0.04752520000147342;2462
13;0.05077710000114166;2462
14;0.05378460000065388;2463
15;0.056500600001527346;2463
16;0.059629500001392444;2463
17;0.06261980000090261;2464
18;0.06559220000053756;2464
19;0.0689899000008154;2464
20;0.07267470000078902;2464
21;0.07598670000152197;2464
22;0.0799780000015744;2465
23;0.08293000000048778;2465
24;0.08689490000142541;2466
25;0.0908914999999979;2467
26;0.0948887000013201;2467
27;0.09907580000071903;2468
28;0.1030655000013212;2468
29;0.10710950000066077;2469
30;0.11123860000043351;2469
31;0.11455270000078599;2469
32;0.11746930000117572;2470
33;0.12106210000092688;2471
34;0.12518250000175613;2471
35;0.1292200000007142;2471
36;0.13304780000180472;2472
37;0.1370745000003808;2472
38;0.14094870000008086;2473
39;0.14497540000047593;2473
40;0.14895380000052683;2473
41;0.1530110000003333;2473
42;0.1570177000012336;2474
43;0.16096360000119603;2473
44;0.16454290000001492;2473
45;0.16903690000071947;2473
46;0.17300410000098054;2473
47;0.17700130000048375;2473
48;0.18080290000034438;2472
49;0.18392520000088552;2472
50;0.1869222000004811;2472
51;0.18992210000033083;2471
52;0.19288530000085302;2471
53;0.19578890000047977;2471
54;0.19878690000041388;2470
55;0.20179950000056124;2470
56;0.2047578000001522;2470
57;0.20774470000105794;2470
58;0.2107467000005272;2469
59;0.21375930000067456;2470
60;0.2167925000012474;2470
61;0.21972470000036992;2470
62;0.2227197000011074;2470
63;0.22574160000112897;2469
64;0.2287417000006826;2469
65;0.23177440000108618;2469
66;0.23474370000076306;2469
67;0.23775170000044454;2468
68;0.24174090000087745;2468
69;0.24473970000144618;2468
70;0.24736760000087088;2468
71;0.2507439000000886;2468
72;0.2537452000015037;2467
73;0.25759430000107386;2467
74;0.26074100000005274;2467
75;0.2637440000016795;2467
76;0.2667408000015712;2467
77;0.26974260000133654;2466
78;0.2727119000010134;2466
79;0.2757496000012907;2465
80;0.27873360000012326;2465
81;0.28173080000124173;2464
82;0.28473050000138755;2464
83;0.28730370000084804;2463
84;0.2897329000006721;2463
85;0.29272840000157885;2463
86;0.29573070000151347;2463
87;0.2987274000006437;2462
88;0.30172510000011243;2462
89;0.3044645000009041;2462
90;0.30738250000104017;2462
91;0.3110781000013958;2461
92;0.31455880000066827;2461
93;0.3179786000000604;2460
94;0.32096780000028957;2460
95;0.3250121000000945;2459
96;0.32901790000141773;2459
97;0.3330015000010462;2458
98;0.3359383000006346;2457
99;0.339996800001245;2457
100;0.3440143000007083;2457
101;0.3475467000007484;2456
102;0.3504608000002918;2455
103;0.35354740000002494;2455
104;0.3565502000001288;2454
105;0.3595573000002332;2454
106;0.36255030000029365;2453
107;0.3664403000002494;2452
108;0.36942240000098536;2452
109;0.3714199000005465;2451
110;0.3734624000007898;2451
111;0.37663420000171755;2450
112;0.3795237000013003;2450
113;0.382991000000402;2449
114;0.3870224000002054;2448
115;0.3908919000004971;2447
116;0.3950178000013693;2447
117;0.39742330000080983;2446
118;0.4009817000005569;2445
119;0.40501830000175687;2444
120;0.4090140000007523;2443
121;0.41259920000084094;2442
122;0.41597900000124355;2441
123;0.4200155000016821;2440
124;0.4240002000005916;2439
125;0.427486400001726;2439
126;0.4307141000008414;2438
127;0.43394010000156413;2437
128;0.4380241000017122;2437
129;0.4420259000016813;2436
130;0.4449713000012707;2435
131;0.44896000000153435;2435
132;0.453015700000833;2434
133;0.45701440000084403;2433
134;0.4604955000013433;2432
135;0.46402860000125656;2431
136;0.4669294000013906;2430
137;0.47101800000018557;2429
138;0.4748838000014075;2428
139;0.4790000000011787;2428
140;0.4830026000017824;2427
141;0.4870185000017955;2427
142;0.490810600000259;2426
143;0.4939261000017723;2425
144;0.4969750000000204;2424
145;0.4999418000006699;2424
146;0.5039950000009412;2423
147;0.5079710000009072;2422
148;0.5120191000005434;2421
149;0.5159889000005933;2420
150;0.5200225000007777;2419
151;0.5239989000001515;2418
152;0.5280173000010109;2417
153;0.5319345000007161;2416
154;0.5359977000007348;2415
155;0.5399995000007038;2415
156;0.5440113000004203;2415
157;0.5475432000002911;2414
158;0.5509647000017139;2414
159;0.5548135000008187;2413
160;0.5578013000013016;2412
161;0.5607907000012347;2411
162;0.5644945000003645;2411
163;0.5678602000007231;2410
164;0.5708567000001494;2409
165;0.5735057000001689;2409
166;0.5768302000014955;2408
167;0.5798076000010042;2407
168;0.5825991000001522;2407
169;0.5853916000014578;2407
170;0.5885986000012053;2406
171;0.5916081000013946;2405
172;0.5945755000011559;2405
173;0.5973714000010659;2404
174;0.5996359000000666;2404
175;0.6025985000014771;2403
176;0.605603300000439;2403
177;0.6085635000017646;2402
178;0.6117809000006673;2401
179;0.6145969000008336;2401
180;0.6175505000010162;2400
181;0.6205021000005218;2399
182;0.6235023000008368;2399
183;0.626570600001287;2398
184;0.6295235000015964;2398
185;0.6326193000004423;2397
186;0.6359453000004578;2397
187;0.6399753000005148;2396
188;0.6427970000004279;2396
189;0.6458240000010846;2396
190;0.6485017000013613;2396
191;0.6518598000002385;2395
192;0.654783200001475;2395
193;0.6577764000012394;2394
194;0.6608300000007148;2394
195;0.6635696000012103;2394
196;0.66660850000153;2393
197;0.6696332000010443;2393
198;0.6725953000004665;2392
199;0.6756455000013375;2392
200;0.6786344000011013;2392
201;0.68162570000095;2391
202;0.6846235000011802;2391
203;0.6876465000004828;2391
204;0.6906565000008413;2391
205;0.6937326000006578;2390
206;0.6974417000001267;2390
207;0.7007124000010663;2389
208;0.7037271000008332;2389
209;0.706725700001698;2389
210;0.7097372000007454;2389
211;0.7124443000011524;2389
212;0.7144807000004221;2389
213;0.7179947000004177;2389
214;0.7220215000015742;2388
215;0.7260128000016266;2388
216;0.7300023000007059;2388
217;0.7329814000004262;2388
218;0.7370243000004848;2387
219;0.7408807000010711;2388
220;0.7439792000004672;2388
221;0.747544800000469;2388
222;0.7509553000018059;2388
223;0.7550248000006832;2388
224;0.7584841000007145;2388
225;0.7620073000016419;2387
226;0.7660244000016974;2387
227;0.7700174000001425;2387
228;0.7734868000006827;2387
229;0.7769652000006317;2387
230;0.7806355000011536;2387
231;0.783973600000536;2388
232;0.7880216000012297;2388
233;0.7920382000011159;2388
234;0.7960320000001957;2388
235;0.7989446999999927;2388
236;0.8030293000010715;2388
237;0.807008700001461;2388
238;0.8099803000004613;2388
239;0.8139887000015733;2388
240;0.8180154000001494;2388
241;0.8219434000002366;2389
242;0.8260327000007237;2389
243;0.8300528000017948;2390
244;0.832998800000496;2390
245;0.836707500000557;2391
246;0.8410408000017924;2391
247;0.8450399000012112;2392
248;0.8490017000003718;2392
249;0.8524845000010828;2393
250;0.8556173000015406;2393
251;0.8589360000005399;2393
252;0.8619268000002194;2394
253;0.8659804000017175;2394
254;0.868971000001693;2394
255;0.8719773000011628;2394
256;0.8749208000008366;2395
257;0.8777745000006689;2395
258;0.8805473000011261;2396
259;0.8837389000000258;2396
260;0.8867727000015293;2396
261;0.8897716000010405;2397
262;0.8928051000002597;2397
263;0.8957761000001483;2397
264;0.8988361000010627;2398
265;0.9017941000001883;2398
266;0.9047818000017287;2399
267;0.9077797000009014;2399
268;0.9105491000009351;2399
269;0.9133608000011009;2399
270;0.9155298000005132;2399
271;0.9185508000009577;2400
272;0.9215604000000894;2400
273;0.9251539000015327;2401
274;0.929131500000949;2401
275;0.9330395000015415;2402
276;0.9370400000007066;2403
277;0.9410353000002942;2404
278;0.9450466000016604;2404
279;0.9490112000003137;2405
280;0.9530419000002439;2406
281;0.9570465000015247;2407
282;0.9610440000014933;2408
283;0.9646840000004886;2410
284;0.9677891000010277;2410
285;0.9707868000004964;2411
286;0.9737445000009757;2411
287;0.9767323000014585;2411
288;0.9797390000003361;2412
289;0.9827305000017077;2413
290;0.9857320000010077;2413
291;0.9887362000008579;2414
292;0.9915913000004366;2414
293;0.9945866000016395;2415
294;0.9974777000006725;2415
295;1.000540800001545;2416
296;1.003585700000258;2417
297;1.0067806000006385;2418
298;1.0097751000012067;2418
299;1.0127746000016487;2419
300;1.0157833000012033;2419
301;1.0187915000005887;2420
302;1.021380500000305;2421
303;1.02458630000001;2421
304;1.0275859000012133;2422
305;1.0305339000005915;2422
306;1.0341033000004245;2423
307;1.0381192000004376;2423
308;1.0421258000005764;2424
309;1.0460114000015892;2425
310;1.0490098000009311;2426
311;1.0525110000016866;2427
312;1.0559633000011672;2428
313;1.0598249000013311;2429
314;1.0628007000013895;2429
315;1.065754500001276;2430
316;1.068761500000619;2431
317;1.0717559000004258;2432
318;1.0744512000001123;2432
319;1.0775960000009945;2432
320;1.08048190000045;2433
321;1.0835498000014923;2433
322;1.0867552000017895;2434
323;1.0910043000003498;2435
324;1.0950440000015078;2436
325;1.0989897000017663;2437
326;1.1030239000010624;2437
327;1.107011700001749;2439
328;1.1110846000010497;2439
329;1.1145974000010028;2440
330;1.1177093000005698;2441
331;1.1220229000009567;2442
332;1.126019900000756;2443
333;1.13012240000171;2443
334;1.1339939000008599;2445
335;1.1379584000005707;2446
336;1.1420210000014777;2446
337;1.1459861000003002;2447
338;1.1488111000016943;2448
339;1.1517952000012883;2449
340;1.1546403000011196;2449
341;1.157665900000211;2450
342;1.1606452000014542;2451
343;1.1636395000004995;2451
344;1.1667060000017955;2452
345;1.169693499999994;2453
346;1.1726808000003075;2454
347;1.1757202000007965;2454
348;1.1787620000013703;2454
349;1.181757700000162;2455
350;1.1847525000011956;2455
351;1.187767300001724;2456
352;1.1907566000008956;2456
353;1.1937522000007448;2457
354;1.1965094000006502;2457
355;1.1997560000017984;2458
356;1.2027590000016062;2458
357;1.20576180000171;2458
358;1.2087444000007963;2459
359;1.2116907000017818;2459
360;1.214755700000751;2460
361;1.2177684000016598;2460
362;1.2207304000003205;2461
363;1.223732000000382;2462
364;1.2267331000002741;2462
365;1.2295061000004353;2463
366;1.2324466000009124;2463
367;1.234442000000854;2464
368;1.2364991000013106;2464
369;1.2392503000010038;2464
370;1.2412147000013647;2465
371;1.2431866000006266;2465
372;1.2451822000002721;2465
373;1.2472665000004781;2465
374;1.2493628000011086;2466
375;1.2514989000010246;2466
376;1.253444700001637;2467
377;1.2565107000009448;2467
378;1.259413100000529;2468
379;1.262514200001533;2468
380;1.2643068000015774;2469
381;1.2675162000014097;2469
382;1.2704796000016358;2469
383;1.2735497000012401;2469
384;1.2754141000004893;2470
385;1.278506800001196;2470
386;1.2803127000006498;2470
387;1.2824011000011524;2471
388;1.2855040000013105;2471
389;1.2885124000003998;2471
390;1.2914724000002025;2471
391;1.2949966000014683;2471
392;1.2990434000003006;2472
393;1.3030597000015405;2472
394;1.3065901000009035;2472
395;1.3100798000014038;2472
396;1.313876700000037;2472
397;1.3170339000007516;2472
398;1.3210590000016964;2472
399;1.3236775000004855;2473
400;1.3267473000014434;2473
401;1.3297501000015473;2472
402;1.332718700001351;2472
403;1.3357265000013285;2472
404;1.3387241000000358;2472
405;1.3417890000000625;2472
406;1.3447495000000345;2472
407;1.3476940000000468;2472
408;1.3507711000002018;2473
409;1.3534028000012768;2473
410;1.3567503000012948;2473
411;1.3597797000002174;2473
412;1.362542200000462;2473
413;1.3655749000008655;2473
414;1.368729900001199;2473
415;1.3717370000013034;2472
416;1.3746920000012324;2472
417;1.3777462000016385;2472
418;1.3806932000006782;2472
419;1.3837852000015118;2472
420;1.3867855000007694;2472
421;1.3897729000000254;2472
422;1.3928568000010273;2472
423;1.395813700000872;2472
424;1.398869000000559;2472
425;1.4017890000013722;2472
426;1.4047763000016857;2472
427;1.4078225000012026;2472
428;1.4107933000013873;2472
429;1.4137255000005098;2472
430;1.4166908000006515;2472
431;1.419776800001273;2472
432;1.4227850000006583;2472
433;1.4257927000016934;2471
434;1.4297834000008152;2471
435;1.4326150000015332;2471
436;1.4356747000001633;2470
437;1.438669100001789;2470
438;1.4416346000016347;2470
439;1.4446381000016117;2469
440;1.4474443000017345;2469
441;1.4506392000002961;2469
442;1.4536373000009917;2469
443;1.4566350000004604;2469
444;1.4593776000001526;2468
445;1.4614367000012862;2467
446;1.464529400000174;2467
447;1.4676364000006288;2466
448;1.4706346000002668;2466
449;1.4736444000009215;2466
450;1.4766343000010238;2465
451;1.4796372000000702;2465
452;1.4826352000000043;2465
453;1.4861680000012711;2464
454;1.490202800001498;2463
455;1.4940328000011505;2462
456;1.4976048000007722;2462
457;1.501009100000374;2461
458;1.505162300001757;2461
459;1.507942500000354;2460
460;1.5119861000002857;2460
461;1.516042400000515;2460
462;1.5199446000005992;2460
463;1.5239735000013752;2459
464;1.5280362000012246;2459
465;1.5319954000005964;2458
466;1.5360434000012901;2458
467;1.5399973000003229;2457
468;1.5440360000011424;2456
469;1.5475581000009697;2456
470;1.5509820000006584;2456
471;1.5550342000005912;2455
472;1.55905310000162;2454
473;1.5630235000007815;2453
474;1.5660003000011784;2452
475;1.5699531000009301;2452
476;1.5729489000004833;2451
477;1.577037900000505;2451
478;1.5805534000010084;2450
479;1.583971100000781;2450
480;1.5875311000017973;2449
481;1.5908092000008764;2448
482;1.5950371000017185;2447
483;1.5990243000014743;2446
484;1.603034600000683;2445
485;1.6070381000008638;2444
486;1.611037500000748;2443
487;1.6148538000015833;2442
488;1.6180182000007335;2442
489;1.6220412000002398;2441
490;1.6260396000016044;2440
491;1.6300493000017013;2439
492;1.6334374000016396;2439
493;1.6370206000010512;2438
494;1.641030500000852;2437
495;1.6450426000010339;2436
496;1.6486649000016769;2435
497;1.6519863000012265;2434
498;1.6549616000011156;2433
499;1.657772800001112;2432
500;1.6606584000001021;2432
501;1.663452700000562;2431
502;1.6665956000015285;2431
503;1.6695852000011655;2430
504;1.6725801000011415;2430
505;1.6759141000002273;2429
506;1.6786996000009822;2428
507;1.6817433000014717;2427
508;1.6847666000012396;2426
509;1.6877710000007937;2426
510;1.6907680000003893;2425
511;1.6937742000009166;2424
512;1.6967746000009356;2424
513;1.6997983000001113;2423
514;1.7027721000013116;2423
515;1.7057719000004;2422
516;1.708773199999996;2421
517;1.711769200001072;2421
518;1.7144100000004983;2420
519;1.7164594000005309;2419
520;1.7197454000015568;2419
521;1.7227502000005188;2418
522;1.725763200000074;2418
523;1.7283782000013161;2417
524;1.7317702000000281;2417
525;1.73477720000119;2417
526;1.7377691000001505;2416
527;1.7407734000007622;2415
528;1.7437096000012389;2414
529;1.7467728999999963;2414
530;1.7497753000006924;2413
531;1.7527641000015137;2413
532;1.7557757000013225;2412
533;1.7587690000000293;2412
534;1.7617804000001343;2411
535;1.7647615000005317;2411
536;1.7677707000002556;2410
537;1.7707684000015433;2409
538;1.7737697000011394;2409
539;1.7767754000014975;2408
540;1.7797772000012628;2407
541;1.7827654000011535;2407
542;1.7857674000006227;2406
543;1.7887690000006842;2406
544;1.7916438000011112;2405
545;1.7947666000000027;2405
546;1.797768400001587;2404
547;1.8007643000000826;2403
548;1.8037810000005265;2402
549;1.806715600001553;2402
550;1.8097704000010708;2401
551;1.8127721000000747;2400
552;1.8157817000010255;2400
553;1.8187733000013395;2400
554;1.8217698000007658;2399
555;1.8247728000005736;2398
556;1.8277760000000853;2398
557;1.8304510000016307;2398
558;1.8337724000011804;2398
559;1.8367699000009452;2397
560;1.8397699000015564;2397
561;1.8427618000005168;2396
562;1.8457764000013412;2396
563;1.8487777000009373;2395
564;1.8517693000012514;2395
565;1.8544998000015767;2395
566;1.857823100001042;2395
567;1.8607808000015211;2394
568;1.8634308000000601;2394
569;1.8667747000017698;2394
570;1.8697748000013235;2393
571;1.8727864000011323;2393
572;1.8756978000001254;2393
573;1.8787478000012925;2392
574;1.881447700001445;2392
575;1.8847665000012057;2392
576;1.8877621999999974;2392
577;1.8907503000009456;2391
578;1.8937567000011768;2391
579;1.8967720000000554;2391
580;1.8997464000003674;2390
581;1.9027350000014849;2390
582;1.9057296000009956;2390
583;1.9087304000004224;2390
584;1.9117571000006137;2390
585;1.9145413000005647;2389
586;1.9175424000004568;2389
587;1.9205292000006011;2389
588;1.9235160000007454;2389
589;1.927012600001035;2389
590;1.9304107000007207;2389
591;1.9334155000015016;2389
592;1.9353935000017373;2388
593;1.9372801000008621;2388
594;1.9393017000002146;2388
595;1.9413789000009274;2388
596;1.9434249000005366;2388
597;1.9453102000006766;2388
598;1.9473174000013387;2388
599;1.9492752000005567;2388
600;1.9512935000002471;2388
601;1.9532481000005646;2388
602;1.9553057000011904;2388
603;1.9574128000003839;2387
604;1.9604819000014686;2387
605;1.9623947000000044;2388
606;1.9643900000010035;2387
607;1.9663861000008183;2387
608;1.9684153000016522;2387
609;1.970376600000236;2388
610;1.972419900001114;2387
611;1.974409200000082;2387
612;1.9764575000008335;2387
613;1.9784200000012788;2387
614;1.981444900000497;2386
615;1.9835015000007843;2387
616;1.9864644000008411;2387
617;1.9894722000008187;2387
618;1.9924801000015577;2388
619;1.9954933000008168;2388
620;1.997382600000492;2388
621;1.9994841000007;2388
622;2.002472400001352;2387
623;2.0055134000012913;2387
624;2.0075193000011495;2387
625;2.0093744000005245;2388
626;2.012423200001649;2388
627;2.0144146000002365;2388
628;2.0164374000014504;2389
629;2.018381700001555;2389
630;2.020394100001795;2389
631;2.02230100000088;2389
632;2.0242942000004405;2389
633;2.0264415000001463;2390
634;2.028429200001483;2390
635;2.03145780000159;2390
636;2.033399100000679;2391
637;2.0354624000010517;2391
638;2.0383292000005895;2391
639;2.0415478000013536;2392
640;2.0445292000003974;2392
641;2.046651500000735;2392
642;2.0499767000001157;2393
643;2.0539811000016925;2393
644;2.057935200000429;2393
645;2.0608735000005254;2394
646;2.0647556000003533;2394
647;2.0676426000009087;2394
648;2.070620800001052;2394
649;2.073649900001328;2395
650;2.0765155000008235;2395
651;2.079645800000435;2396
652;2.082672000000457;2396
653;2.085544400000799;2397
654;2.088674300001003;2397
655;2.0916733000012755;2397
656;2.0946417000013753;2397
657;2.0976446000004216;2398
658;2.1006659000013315;2398
659;2.1037335000000894;2399
660;2.106733600001462;2399
661;2.1097420000005513;2400
662;2.112730400000146;2400
663;2.115737900001477;2400
664;2.1187095000004774;2400
665;2.1217320000014297;2401
666;2.1247456000000966;2402
667;2.1277175000013813;2403
668;2.130459600000904;2403
669;2.133725300000151;2403
670;2.1367124000007607;2404
671;2.139750800000911;2404
672;2.1427526000006765;2405
673;2.145745600000737;2406
674;2.1484923000007257;2406
675;2.1517479000012827;2407
676;2.154747900000075;2407
677;2.157740400001785;2408
678;2.16071920000104;2408
679;2.163427800000136;2409
680;2.1665235000000393;2410
681;2.169744000000719;2410
682;2.172749000001204;2411
683;2.175753400000758;2412
684;2.178740300001664;2412
685;2.181512200000725;2412
686;2.1845987000015157;2413
687;2.1875763000007282;2413
688;2.190611500000159;2414
689;2.1936966000012035;2415
690;2.1964083000002574;2415
691;2.1986467000006087;2416
692;2.201589900001636;2416
693;2.204629900001237;2417
694;2.2076225000000704;2418
695;2.2105890000002546;2418
696;2.213538400001198;2419
697;2.2170803000008164;2420
698;2.221126500000537;2420
699;2.225135600001522;2421
700;2.2290081000010105;2421
701;2.231996900000013;2422
702;2.236027800001466;2422
703;2.2400308000014775;2423
704;2.244028100001742;2424
705;2.2476284000003943;2424
706;2.2508270000016637;2425
707;2.2537937000015518;2425
708;2.2568004000004294;2426
709;2.2598043000016332;2427
710;2.2626933000010467;2427
711;2.265767400000186;2428
712;2.2687542000003305;2428
713;2.2717566000010265;2429
714;2.2745910000012373;2429
715;2.277593800001341;2429
716;2.2803488000008656;2430
717;2.28298630000063;2430
718;2.2871692000007897;2431
