;time;amplitude
0;0.003023600000233273;2388
1;0.00623739999900863;2388
2;0.008925000000090222;2388
3;0.012462400000003981;2388
4;0.014918199998646742;2387
5;0.018418899999232963;2387
6;0.021967699998640455;2386
7;0.024938099999417318;2387
8;0.027951699999903212;2386
9;0.030874500000209082;2386
10;0.033961199998884695;2386
11;0.03700349999962782;2385
12;0.040302899999005604;2385
13;0.04293390000020736;2385
14;0.046099799999865354;2385
15;0.04891529999986233;2385
16;0.05209079999985988;2384
17;0.05494089999956486;2384
18;0.057826899999781745;2384
19;0.06083089999992808;2384
20;0.06386489999931655;2383
21;0.06735939999998664;2383
22;0.06995909999932337;2383
23;0.07307779999973718;2383
24;0.07596029999876919;2383
25;0.0789268999997148;2382
26;0.0819004999993922;2382
27;0.08494160000009288;2382
28;0.08816509999996924;2382
29;0.09098959999937506;2381
30;0.09410089999983029;2382
31;0.09691579999889655;2381
32;0.10009869999885268;2381
33;0.10394209999867599;2381
34;0.10703970000031404;2381
35;0.1099419999991369;2381
36;0.11314329999913753;2381
37;0.11594549999972514;2380
38;0.11894279999978608;2380
39;0.1222514000000956;2380
40;0.12495490000037535;2380
41;0.12809959999867715;2379
42;0.13070890000017243;2379
43;0.13268369999968854;2380
44;0.13468560000001162;2380
45;0.13667489999897953;2379
46;0.13872559999981604;2379
47;0.1407480999987456;2379
48;0.14366580000023532;2379
49;0.1456486999995832;2378
50;0.14782240000022284;2378
51;0.15070379999997385;2378
52;0.1526955999997881;2377
53;0.1548566999990726;2377
54;0.15770799999882001;2377
55;0.15966759999901114;2377
56;0.1618385000001581;2377
57;0.16468879999956698;2377
58;0.1666783000000578;2377
59;0.16882909999912954;2376
60;0.17068060000019614;2376
61;0.17283039999892935;2376
62;0.17475550000017392;2376
63;0.17762190000030387;2376
64;0.17964849999953003;2376
65;0.18166199999905075;2376
66;0.1836609000001772;2376
67;0.18565200000011828;2376
68;0.1878149999993184;2376
69;0.18987050000032468;2376
70;0.1916516999990563;2376
71;0.193653299998914;2375
72;0.1958015999989584;2375
73;0.19879860000037297;2375
74;0.2007880999990448;2375
75;0.20372609999867564;2375
76;0.20560870000008435;2375
77;0.2076828999997815;2375
78;0.20965219999925466;2374
79;0.2116874999992433;2374
80;0.2136878000001161;2374
81;0.2158222999987629;2374
82;0.21769339999991644;2374
83;0.21968959999867366;2374
84;0.22183009999935166;2374
85;0.22375709999869287;2374
86;0.22574489999897196;2374
87;0.22882099999878847;2374
88;0.2316536999987875;2374
89;0.23365079999894078;2374
90;0.23580269999911252;2374
91;0.2378627999987657;2374
92;0.24067079999986163;2375
93;0.24268879999908677;2375
94;0.24469370000042545;2375
95;0.24661059999925783;2375
96;0.24863249999907566;2374
97;0.2507774999994581;2375
98;0.2526484999998502;2374
99;0.2546848999991198;2374
100;0.2566047999989678;2373
101;0.2587260999989667;2373
102;0.2605833999987226;2373
103;0.26265869999951974;2373
104;0.2646430999993754;2373
105;0.2666062999996939;2373
106;0.26862309999887657;2373
107;0.27078330000040296;2373
108;0.273836599999413;2373
109;0.2766433999986475;2373
110;0.2787324999990233;2373
111;0.2806375999989541;2373
112;0.28271069999937026;2373
113;0.28480259999923874;2373
114;0.28668159999870113;2373
115;0.28870439999991504;2373
116;0.29068910000023607;2373
117;0.2926169000002119;2373
118;0.294629599999098;2373
119;0.29670079999959853;2373
120;0.2987923000000592;2373
121;0.30064499999934924;2373
122;0.30263039999954344;2373
123;0.3047791999997571;2373
124;0.3066257999998925;2373
125;0.30865710000034596;2372
126;0.31079870000030496;2373
127;0.3127028999988397;2373
128;0.3146608999995806;2373
129;0.31661069999972824;2373
130;0.31886739999936253;2372
131;0.32065179999881366;2372
132;0.3227396000002045;2372
133;0.3247976999991806;2372
134;0.32661410000036994;2373
135;0.3286556999992172;2373
136;0.3307865999995556;2373
137;0.33353469999929075;2373
138;0.33566029999929015;2372
139;0.33762190000015835;2372
140;0.3399221999989095;2372
141;0.3425998000002437;2372
142;0.3447684000002482;2372
143;0.34678299999904993;2372
144;0.3486027999988437;2372
145;0.3507110999998986;2372
146;0.3527753999987908;2372
147;0.35462159999951837;2372
148;0.35673229999883915;2372
149;0.35876379999899655;2372
150;0.3606294999990496;2372
151;0.36260000000038417;2371
152;0.36461419999977807;2371
153;0.3666901999986294;2371
154;0.36865389999911713;2371
155;0.3706662000004144;2371
156;0.37277779999931226;2371
157;0.3746381000000838;2371
158;0.3767268999999942;2371
159;0.37888790000033623;2371
160;0.38163989999884507;2371
161;0.3847492000004422;2371
162;0.3881588999993255;2371
163;0.3909211999998661;2371
164;0.3939305999992939;2370
165;0.39670159999877797;2371
166;0.3987485999987257;2371
167;0.4016479000001709;2371
168;0.40375479999966046;2371
169;0.4056170999992901;2371
170;0.40890679999938584;2371
171;0.41339239999979327;2371
172;0.4168197999988479;2371
173;0.4198581999989983;2371
174;0.42290759999923466;2371
175;0.425778499999069;2372
176;0.42869880000034755;2372
177;0.4307797000001301;2372
178;0.4338840000000346;2372
179;0.43674709999868355;2372
180;0.4386885000003531;2372
181;0.44088559999909194;2372
182;0.443958300000304;2372
183;0.44688700000006065;2372
184;0.4497217999996792;2372
185;0.4517575999998371;2372
186;0.4539296999992075;2372
187;0.4567666000002646;2372
188;0.45988930000021355;2372
189;0.46310749999975087;2373
190;0.46577979999892705;2373
191;0.4679467999994813;2373
192;0.47108379999917815;2373
193;0.4737857999989501;2373
194;0.47670970000035595;2372
195;0.47873280000021623;2372
196;0.481872199999998;2372
197;0.4849315999999817;2373
198;0.48791589999927965;2372
199;0.49087909999980184;2372
200;0.4939303999999538;2372
201;0.4968466999998782;2372
202;0.5013368999989325;2372
203;0.5049256999991485;2372
204;0.5079279000001407;2371
205;0.510636599999998;2371
206;0.5128014000001713;2371
207;0.5148236999993969;2371
208;0.5168297999989591;2371
209;0.5186495999987528;2371
210;0.5206299000001309;2371
211;0.5228537999992113;2372
212;0.5258216999991419;2372
213;0.527735899999243;2371
214;0.530808800000159;2371
215;0.5326351000003342;2371
216;0.5346859999990556;2371
217;0.5367879999994329;2371
218;0.538640699998723;2371
219;0.5407906000000366;2371
220;0.5438199000000168;2371
221;0.5468493999997008;2371
222;0.5498513000002276;2371
223;0.5526995999989595;2372
224;0.5546734999988985;2371
225;0.5567660999986401;2371
226;0.5598126000004413;2371
227;0.5633398999998462;2371
228;0.5672861999992165;2371
229;0.5709188999990147;2371
230;0.5742118999987724;2371
231;0.5771750000003522;2371
232;0.580018900000141;2371
233;0.5830083999990165;2371
234;0.5859318000002531;2371
235;0.5890786999989359;2371
236;0.5919324999995297;2371
237;0.5950487999998586;2371
238;0.5979157000001578;2371
239;0.6009916000002704;2371
240;0.6038461999996798;2371
241;0.6069293000000471;2372
242;0.6099187999989226;2371
243;0.6127717999988818;2371
244;0.6159365000003163;2372
245;0.6189811999993253;2371
246;0.6219180999996752;2371
247;0.6249365999992733;2371
248;0.6280673000001116;2371
249;0.6309622999997373;2371
250;0.6340827000003628;2372
251;0.6369364999991376;2372
252;0.6397204999993846;2372
253;0.6429422000001068;2372
254;0.646065400000225;2372
255;0.6487772000000405;2372
256;0.6519646999986435;2372
257;0.6550713999986328;2372
258;0.6580964999993739;2372
259;0.6610679999994318;2372
260;0.663933799998631;2372
261;0.6670634000001883;2372
262;0.6700834000002942;2372
263;0.6727343000002293;2371
264;0.6760166999993089;2371
265;0.678968199999872;2371
266;0.6820869000002858;2371
267;0.6850572000003012;2371
268;0.6880782999996882;2371
269;0.6910712999997486;2371
270;0.6940488999989611;2371
271;0.6967831000001752;2371
272;0.7000475999993796;2371
273;0.703047199998764;2371
274;0.705718799999886;2371
275;0.709088999999949;2371
276;0.7119003999996494;2371
277;0.7150412999999389;2371
278;0.7180790999991586;2370
279;0.7210498000004009;2370
280;0.7240462999998272;2370
281;0.7266712000000553;2371
282;0.7300667999988946;2370
283;0.7330480999989959;2370
284;0.7360480999996071;2371
285;0.7389246000002458;2371
286;0.7421421999988524;2371
287;0.7450427000003401;2370
288;0.7480646999993041;2371
289;0.7510705999993661;2371
290;0.7540719999997236;2371
291;0.7570631999988109;2371
292;0.7600693999993382;2371
293;0.7630472000000736;2371
294;0.7660648000000947;2371
295;0.7690736999993533;2370
296;0.7720071999992797;2370
297;0.7749351999991632;2370
298;0.7778113999993366;2370
299;0.7808143999991444;2370
300;0.7829115999993519;2370
301;0.7857779999994818;2370
302;0.7881448999996792;2370
303;0.7913456999995105;2370
304;0.7952884999995149;2371
305;0.7993661000000429;2371
306;0.8034926000000269;2371
307;0.8071184999989782;2371
308;0.8109067999994295;2370
309;0.8142167999994854;2371
310;0.8173678999992262;2371
311;0.8207887999997183;2371
312;0.824143699999695;2372
313;0.828295999999682;2372
314;0.8323906999994506;2372
315;0.836452300000019;2372
316;0.8387646999999561;2372
317;0.8407804999988002;2372
318;0.8428119000000152;2372
319;0.8447445000001608;2371
320;0.8467479999999341;2371
321;0.8498521000001347;2371
322;0.852841099998841;2371
323;0.8548027999986516;2371
324;0.856769500000155;2371
325;0.8598525999987032;2371
326;0.8617596000003687;2371
327;0.8637571999988722;2371
328;0.8668426999993244;2371
329;0.8687826999994286;2371
330;0.8718714999995427;2371
331;0.8748428999988391;2371
332;0.8768087999997078;2371
333;0.8798420999992231;2371
334;0.8828542999999627;2372
335;0.8864383000000089;2372
336;0.889927299998817;2372
337;0.8930352999996103;2372
338;0.8960121999989497;2371
339;0.8988079999999172;2371
340;0.9020199999995384;2371
341;0.9049826999998913;2371
342;0.9080838999998377;2371
343;0.9109396999992896;2371
344;0.9138050000001385;2372
345;0.9157854999994015;2372
346;0.9177915000000212;2373
347;0.9197913999996672;2373
348;0.9217958999997791;2372
349;0.9252861999993911;2372
350;0.9282800000000861;2373
351;0.9307504999997036;2372
352;0.933910099998684;2372
353;0.9369181000001845;2372
354;0.9397607999999309;2372
355;0.9427510999994411;2372
356;0.9458605999989231;2372
357;0.949117699999988;2372
358;0.9519485999990138;2371
359;0.9550906000004034;2371
360;0.9579498000002786;2371
361;0.9610629999988305;2371
362;0.9638361999986955;2371
363;0.9668087999998534;2371
364;0.9699794999996811;2371
365;0.9727903999992122;2371
366;0.9760353000001487;2371
367;0.9787966000003507;2371
368;0.9806711000001087;2371
369;0.9826452999986941;2371
370;0.9846471999990172;2371
371;0.9866124999989552;2371
372;0.9887010000002192;2371
373;0.9906855999997788;2370
374;0.993927800000165;2371
375;0.9967818999994051;2371
376;0.9987548999997671;2371
377;1.000668599999699;2371
378;1.0027813999986392;2371
379;1.0046457999997074;2371
380;1.0065699999995559;2371
381;1.008979599999293;2370
382;1.0116010000001552;2370
383;1.013537599999836;2370
384;1.0155842999993183;2370
385;1.0176370999997744;2370
386;1.019551199999114;2370
387;1.0215800999994826;2370
388;1.0236540999994759;2370
389;1.02689669999927;2370
390;1.0286414000001969;2370
391;1.0306378999994195;2370
392;1.0325654999996914;2370
393;1.0346348000002763;2370
394;1.0366185999992013;2370
395;1.0386256000001595;2370
396;1.0410460000002786;2370
397;1.0437917999988713;2370
398;1.045628799998667;2370
399;1.04761789999975;2371
400;1.0496179000001575;2371
401;1.0516530000004423;2370
402;1.0536367999993672;2370
403;1.0556139999989682;2370
404;1.0579839999991236;2370
405;1.059631799998897;2370
406;1.0616161999987526;2370
407;1.0636166999993293;2370
408;1.0656307999997807;2370
409;1.0676370999990468;2370
410;1.0696002999993652;2370
411;1.0716663999992306;2371
412;1.0737527000001137;2371
413;1.0755951999999525;2371
414;1.0775998999997682;2371
415;1.0795977999987372;2371
416;1.0816806000002543;2371
417;1.0835821000000578;2371
418;1.0856310999988636;2371
419;1.0876613000000361;2371
420;1.0896876999995584;2371
421;1.0916259999994509;2371
422;1.0936654999986786;2371
423;1.0956401999992522;2371
424;1.0976167999997415;2372
425;1.0996127999987948;2372
426;1.1016454999989946;2372
427;1.1036428999996133;2372
428;1.1056597999995574;2372
429;1.1077012999994622;2372
430;1.109658399998807;2372
431;1.11169179999888;2372
432;1.1136962000000494;2372
433;1.1156923999988066;2372
434;1.1176457000001392;2372
435;1.1196892999996635;2372
436;1.1216647000001103;2372
437;1.1237072000003536;2372
438;1.1256959000002098;2372
439;1.127672900000107;2372
440;1.1296762999991188;2372
441;1.131685299998935;2372
442;1.1336730000002717;2372
443;1.135701600000175;2372
444;1.1377061999992293;2372
445;1.1397161999993841;2372
446;1.1427845999987767;2372
447;1.1458188999986305;2372
448;1.1477859999995417;2372
449;1.1496389000003546;2372
450;1.152817000000141;2372
451;1.154765999999654;2372
452;1.1569947999996657;2372
453;1.1596504999997705;2373
454;1.1616302000002179;2372
455;1.1636292000002868;2373
456;1.1656394000001455;2372
457;1.1676735000000917;2372
458;1.1696863999986817;2372
459;1.1717011999990063;2372
460;1.1741763999998511;2372
461;1.1766649000001053;2373
462;1.178749599999719;2373
463;1.1807601000000432;2373
464;1.1827567999989697;2372
465;1.1847750999986602;2372
466;1.1868463999999221;2372
467;1.1897677999986627;2372
468;1.191788699999961;2372
469;1.1938007999997353;2372
470;1.1957960999989155;2372
471;1.1976317999997264;2372
472;1.1995464999999967;2372
473;1.201539599998796;2372
474;1.2035787000004348;2372
475;1.205677799998739;2372
476;1.2076868999993167;2372
477;1.2096461000001;2372
478;1.2116420999991533;2372
479;1.2136291999995592;2372
480;1.2156212999998388;2372
481;1.2176523999987694;2372
482;1.219646899999134;2372
483;1.2216296999995393;2372
484;1.2236885000002076;2372
485;1.2256226999998034;2372
486;1.2276781000000483;2372
487;1.2296945999987656;2372
488;1.2316398000002664;2372
489;1.2336727000001702;2372
490;1.2356638000001112;2371
491;1.2376487999990786;2372
492;1.2398183999994217;2372
493;1.241648899998836;2371
494;1.243634499998734;2371
495;1.2468140999990283;2371
496;1.2488142999991396;2371
497;1.2518099999997503;2371
498;1.2538076999990153;2371
499;1.2557667000000947;2371
500;1.258802399999695;2372
501;1.2617797999992035;2371
502;1.2637701999992714;2371
503;1.2657671999986633;2372
504;1.267772100000002;2372
505;1.2698459999992338;2372
506;1.2718339000002743;2372
507;1.274838199999067;2372
508;1.2778051999994204;2372
509;1.2797919000004185;2372
510;1.2817488000000594;2372
511;1.2836795000002894;2372
512;1.2855423999990307;2372
513;1.2876051000002917;2371
514;1.2895790999991732;2371
515;1.2917153999987931;2372
516;1.2936159999990196;2372
517;1.2956025000003137;2372
518;1.2976075999995373;2372
519;1.2995878999990964;2372
520;1.3016052000002674;2372
521;1.3035683999987668;2372
522;1.3056930000002467;2372
523;1.307800299999144;2372
524;1.3096515999986877;2372
525;1.3116878000000725;2372
526;1.3137804999987566;2372
527;1.3156558999999106;2372
528;1.3177321000002848;2372
529;1.319629999999961;2372
530;1.321645099998932;2372
531;1.323660000000018;2371
532;1.325693400000091;2371
533;1.3288651999991998;2371
534;1.3306573999998363;2371
535;1.33273569999983;2372
536;1.3356836999992083;2371
537;1.3376938000001246;2371
538;1.339756600000328;2371
539;1.3427790999994613;2371
540;1.344691000000239;2371
541;1.3467516000000614;2370
542;1.348756899998989;2370
543;1.3507224999993923;2370
544;1.3527307999993354;2371
545;1.3547536999994918;2371
546;1.3578753000001598;2371
547;1.3596287000000302;2371
548;1.3616048999992927;2371
549;1.3636458999990282;2371
550;1.365578099999766;2371
551;1.3675819000000047;2371
552;1.3695640999994794;2371
553;1.3715507999986585;2371
554;1.3739585999992414;2371
555;1.3755958000001556;2370
556;1.3775656999987405;2371
557;1.3795336999992287;2371
558;1.381577299998753;2371
559;1.383624599999166;2371
560;1.3857262000001356;2371
561;1.3876865999991423;2371
562;1.3898262000002433;2371
563;1.391664499999024;2371
564;1.3937495999998646;2371
565;1.3955804999986867;2372
566;1.3976708999998664;2372
567;1.3996002999992925;2371
568;1.40158909999991;2372
569;1.4036051999992196;2372
570;1.4058437000003323;2372
571;1.4076513999989402;2372
572;1.4096528999998554;2372
573;1.4116768999992928;2372
574;1.413675499999954;2372
575;1.4156466999993427;2372
576;1.417720499999632;2372
577;1.4196697999996104;2372
578;1.4216636999990442;2372
579;1.4238200999989203;2372
580;1.4258197999988624;2371
581;1.4278742999995302;2371
582;1.4313597999989724;2371
583;1.4353701999989426;2371
584;1.4390602000003128;2371
585;1.4423415000001114;2371
586;1.4463629000001674;2372
587;1.4503477999987808;2371
588;1.4543567999990046;2371
589;1.4568493999995553;2371
590;1.4600675000001502;2371
591;1.4642747999987478;2371
592;1.4673136999990675;2371
593;1.4701234000003751;2371
594;1.472810199999003;2371
595;1.4759192999990773;2371
596;1.478907299999264;2371
597;1.4817948999989312;2370
598;1.4839061000002403;2370
599;1.4868310000001657;2370
600;1.4898611999997229;2370
601;1.4932650999999169;2370
602;1.4972620999997162;2371
603;1.501379999999699;2371
604;1.5054693000001862;2371
605;1.5093686999989586;2371
606;1.5144407999996474;2371
607;1.5184234999996988;2370
608;1.5227534999994532;2371
609;1.5265724999990198;2371
610;1.5304978999993182;2370
611;1.534403800000291;2370
612;1.5384219999996276;2370
613;1.540954399999464;2370
614;1.544393799998943;2370
615;1.5484476999990875;2370
616;1.5524152999987564;2370
617;1.5560335999998642;2370
618;1.5592414000002464;2371
619;1.5621904999989056;2371
620;1.565170500000022;2370
621;1.568215199999031;2370
622;1.5724190999990242;2370
623;1.5764624000003096;2370
624;1.580445100000361;2370
625;1.5844129999986762;2370
626;1.5884196999995766;2370
627;1.592006400000173;2370
628;1.5964282999993884;2370
629;1.600387700000283;2370
630;1.6044404999993276;2370
631;1.6069440999999642;2370
632;1.6099416999986715;2370
633;1.6133807999995042;2370
634;1.6174945999991905;2370
635;1.6214798000000883;2370
636;1.6254331999989517;2370
637;1.6294438000004448;2370
638;1.6334307999986777;2370
639;1.6374078999997437;2370
640;1.641072799999165;2370
641;1.6443608999998105;2370
642;1.6484282000001258;2370
643;1.6525509000002785;2370
644;1.6559042999997473;2370
645;1.659265599999344;2371
646;1.6632411999999022;2371
647;1.6661891999992804;2371
648;1.6689442999995663;2370
649;1.672259999999369;2371
650;1.6763943999994808;2371
651;1.6804290000000037;2371
652;1.6843162999994092;2372
653;1.687412299999778;2372
654;1.6914579999993293;2372
655;1.6953434999995807;2371
656;1.699499399999695;2371
657;1.7029122000003554;2372
658;1.7060568999986572;2372
659;1.709378999999899;2372
660;1.7134518000002572;2372
661;1.7169444999999541;2372
662;1.7199357999998028;2372
663;1.72292809999999;2372
664;1.7264063000002352;2372
665;1.729104500000176;2371
666;1.733221099999355;2371
667;1.7360236999993504;2371
668;1.738880799999606;2372
669;1.7421135000004142;2372
670;1.7450563000002148;2371
671;1.748137599999609;2371
672;1.7511309000001347;2371
673;1.754128299999138;2371
674;1.7570185999993555;2371
675;1.7600087999999232;2371
676;1.7629008000003523;2371
677;1.7659875999997894;2371
678;1.7690098000002763;2372
679;1.7720202999989851;2372
680;1.7751200999991852;2371
681;1.7780770999997912;2371
682;1.7811261999995622;2371
683;1.784115099999326;2372
684;1.7871312999996007;2372
685;1.7901363000000856;2372
686;1.7931250000001455;2372
687;1.7961254000001645;2372
688;1.799140899998747;2372
689;1.8020003000001452;2372
690;1.8051576999987446;2372
691;1.8079019999986485;2372
692;1.810919899999135;2372
693;1.8139121000003797;2372
694;1.8169207999999344;2372
695;1.8198519999987184;2372
696;1.8228058999993664;2372
697;1.8248421999996935;2371
698;1.8267701000004308;2372
699;1.828795399998853;2372
700;1.8307459999996354;2372
701;1.832756599998902;2372
702;1.8347491999993508;2372
703;1.837971099999777;2372
704;1.8408042999999452;2371
705;1.8427334999996674;2371
706;1.8447201999988465;2371
707;1.8467366000004404;2371
708;1.8487569999997504;2371
709;1.8507251999999426;2371
710;1.8527295000003505;2372
711;1.8547605999992811;2371
712;1.8566431999988708;2371
713;1.8587231000001339;2371
714;1.8607302000000345;2371
715;1.8627212999999756;2371
