;time;amplitude
0;0.004566199999317178;2512
1;0.010305599998901016;2511
2;0.015061999998579267;2512
3;0.020048499998665648;2512
4;0.02510660000007192;2512
5;0.030133299998851726;2513
6;0.03454519999831973;2513
7;0.03849569999874802;2513
8;0.042369199998574913;2513
9;0.046723899999051355;2513
10;0.050210099998366786;2513
11;0.05430539999906614;2513
12;0.057289599999421625;2513
13;0.06002979999902891;2513
14;0.06329899999946065;2513
15;0.06729669999913312;2513
16;0.07128979999833973;2513
17;0.07529439999962051;2513
18;0.07829599999968195;2513
19;0.08229140000003099;2513
20;0.0862926999998308;2513
21;0.09029399999963061;2513
22;0.09293579999939539;2513
23;0.09619959999872663;2513
24;0.09917769999992743;2513
25;0.10216009999930975;2513
26;0.10616739999932179;2513
27;0.1091731999986223;2512
28;0.11206159999892407;2513
29;0.11517869999988761;2512
30;0.11816670000007434;2512
31;0.12117579999903683;2512
32;0.12417239999922458;2512
33;0.12717389999852458;2512
34;0.13116959999933897;2512
35;0.1341718999992736;2512
36;0.13717279999946186;2512
37;0.1401728999990155;2512
38;0.1429337999998097;2512
39;0.14616909999858763;2512
40;0.14916959999936807;2512
41;0.1531740999998874;2512
42;0.15617199999906006;2513
43;0.15898569999990286;2513
44;0.162168599999859;2513
45;0.16518269999869517;2513
46;0.16816689999905066;2513
47;0.17117859999962093;2512
48;0.17396740000003774;2513
49;0.17692219999844383;2513
50;0.17994419999922684;2512
51;0.1829465999999229;2512
52;0.18593650000002526;2512
53;0.1889339999997901;2513
54;0.19179540000004636;2513
55;0.19441099999858125;2513
56;0.19817519999924116;2513
57;0.2011557999994693;2514
58;0.20415649999995367;2513
59;0.20711389999996754;2513
60;0.2098517999984324;2513
61;0.2130699999997887;2513
62;0.2160738999991736;2512
63;0.21906749999834574;2513
64;0.2219452999997884;2512
65;0.22490499999912572;2512
66;0.2281022999995912;2512
67;0.23109789999944041;2511
68;0.23409459999857063;2511
69;0.23709729999973206;2512
70;0.24009699999987788;2512
71;0.2428260999986378;2512
72;0.24590579999858164;2512
73;0.2490944999990461;2512
74;0.25190809999912744;2513
75;0.25493509999978414;2513
76;0.25792139999975916;2512
77;0.26089609999871755;2512
78;0.2641061999984231;2511
79;0.2671086999998806;2511
80;0.27011709999896993;2511
81;0.27292929999930493;2511
82;0.275990099999035;2511
83;0.2794192999990628;2511
84;0.28345359999912034;2511
85;0.2874694999991334;2511
86;0.29136079999989306;2511
87;0.294166599998789;2512
88;0.2983776000000944;2512
89;0.3023550999987492;2512
90;0.306371599999693;2512
91;0.30990919999931066;2511
92;0.3133060000000114;2511
93;0.3168292999998812;2511
94;0.32006689999980154;2511
95;0.323065199998382;2511
96;0.3258990999984235;2512
97;0.32910479999918607;2512
98;0.33209509999869624;2512
99;0.33510299999943527;2513
100;0.3380881999983103;2513
101;0.3409283000000869;2513
102;0.3441164999985631;2513
103;0.3469472999986465;2513
104;0.3499393999991298;2513
105;0.3529227999988507;2513
106;0.3559248999990814;2513
107;0.35888299999896844;2513
108;0.36243649999960326;2513
109;0.3664662999999564;2513
110;0.37034589999893797;2512
111;0.37435529999856954;2512
112;0.3783674999995128;2512
113;0.3823467999991408;2512
114;0.38636869999936607;2511
115;0.39037329999882786;2511
116;0.3944197999990138;2511
117;0.39834309999969264;2511
118;0.40236669999831065;2511
119;0.40637259999857633;2511
120;0.4098942000000534;2511
121;0.41421429999900283;2510
122;0.41824349999842525;2510
123;0.4222457999985636;2510
124;0.42609559999982594;2510
125;0.4287838999989617;2510
126;0.43219309999949473;2510
127;0.4349817999991501;2510
128;0.43803139999909035;2510
129;0.4410255999991932;2510
130;0.44399279999925056;2510
131;0.4469820999984222;2510
132;0.44988329999978305;2510
133;0.45289169999887235;2511
134;0.45592450000003737;2511
135;0.45891069999925094;2511
136;0.4620158999987325;2510
137;0.46491749999950116;2511
138;0.46791789999952016;2511
139;0.4709238999985246;2510
140;0.47366349999902013;2510
141;0.4756647999984125;2510
142;0.47884029999841005;2509
143;0.48235159999967436;2509
144;0.4863372999989224;2509
145;0.48981370000001334;2509
146;0.4928214999999909;2509
147;0.49601869999969495;2509
148;0.4989970999995421;2509
149;0.5020017999995616;2509
150;0.5049165999989782;2509
151;0.5077900999986014;2509
152;0.5108325999990484;2508
153;0.5139617999993789;2508
154;0.5169522999985929;2508
155;0.5198994999991555;2508
156;0.5230142000000342;2508
157;0.5258218999988458;2508
158;0.5289683999999397;2508
159;0.5319815999991988;2508
160;0.5349701999984973;2509
161;0.5377994999998919;2509
162;0.5409122999990359;2509
163;0.544010999999955;2508
164;0.5470146999996359;2508
165;0.5501970999994228;2508
166;0.554360899999665;2508
167;0.5583441999988281;2508
168;0.5624881999992795;2508
169;0.5668126000000484;2508
170;0.5713622999992367;2507
171;0.575364799999079;2507
172;0.5795041999990644;2507
173;0.5838320999991993;2507
174;0.5888253999983135;2507
175;0.5933803999996599;2506
176;0.5975270999988425;2506
177;0.6010547999994742;2506
178;0.605523299998822;2506
179;0.6095701999984158;2505
180;0.6134820999996009;2505
181;0.617495799999233;2505
182;0.6215099999990343;2505
183;0.6254821999991691;2505
184;0.6295600999983435;2505
185;0.6334683999994013;2505
186;0.6374740999999631;2505
187;0.6414713999984087;2505
188;0.6442525999991631;2505
189;0.648019899999781;2504
190;0.651417399998536;2504
191;0.6554525999999896;2503
192;0.6595008999993297;2503
193;0.664087399998607;2503
194;0.6685473999987153;2502
195;0.6724975999986782;2502
196;0.6761503999987326;2502
197;0.679537199999686;2502
198;0.6834431999996013;2501
199;0.6875136999988172;2501
200;0.6914866999995866;2501
201;0.6955502000000706;2500
202;0.6995176999989781;2500
203;0.7035125999991578;2500
204;0.7075821999987966;2500
205;0.7110389999998006;2499
206;0.7155652999990707;2499
207;0.719509199998356;2499
208;0.723575099998925;2498
209;0.7269891999985703;2498
210;0.7304146999995282;2498
211;0.7344555999989097;2498
212;0.7385646999991877;2498
213;0.742566099999749;2497
214;0.7464885999997932;2496
215;0.7504432999994606;2496
216;0.7545399999999063;2496
217;0.7585483999991993;2496
218;0.762306599999647;2495
219;0.766490399999384;2495
220;0.7704773999994359;2494
221;0.7745098999985203;2494
222;0.7784986999995454;2493
223;0.7824727999995957;2492
224;0.7864702999995643;2492
225;0.7892660999987129;2491
226;0.793087199999718;2491
227;0.7964134999983798;2491
228;0.8004530999987765;2491
229;0.8044283999988693;2490
230;0.8084958999988885;2489
231;0.8110864999998739;2489
232;0.8144114999995509;2489
233;0.8183963999999833;2488
234;0.8224899999986519;2488
235;0.826028799998312;2487
236;0.8304617999983748;2486
237;0.8340757999994821;2486
238;0.8384936999991623;2486
239;0.8424133999997139;2485
240;0.8465158999988489;2485
241;0.8499956999985443;2485
242;0.8545170999987022;2484
243;0.8584606999993412;2484
244;0.8624884000000748;2483
245;0.8660834999991494;2483
246;0.869422099998701;2482
247;0.8734790999988036;2481
248;0.8770481999999902;2480
249;0.881422599999496;2480
250;0.8854682999990473;2479
251;0.8894608999999036;2478
252;0.893086799998855;2478
253;0.8972684000000299;2477
254;0.9015793999988091;2477
255;0.9055214999989403;2476
256;0.9094401999991533;2475
257;0.9130882999997993;2475
258;0.9174731999992218;2474
259;0.9214883999993617;2474
260;0.9255376000000979;2473
261;0.929029899998568;2472
262;0.9324820999991061;2472
263;0.9364999999997963;2471
264;0.9405030999987503;2470
265;0.9439162999988184;2470
266;0.9474199999986013;2469
267;0.9514908000001014;2469
268;0.9555265999988478;2469
269;0.9593834999996034;2468
270;0.9634517999984382;2467
271;0.9674835999994684;2467
272;0.9715553999994881;2466
273;0.9755521999995835;2465
274;0.979488199998741;2465
275;0.9834975999983726;2465
276;0.9875022999985958;2464
277;0.9912363999992522;2463
278;0.9942388999988907;2462
279;0.9984875999998621;2461
280;1.0025015999999596;2461
281;1.0064609999990353;2460
282;1.0100043999991613;2459
283;1.0145187999987684;2458
284;1.0184974999992846;2457
285;1.0222708000001148;2457
286;1.0249135999983991;2456
287;1.0279228999988845;2455
288;1.0309521999988647;2455
289;1.0339816999985487;2454
290;1.0366203999983554;2454
291;1.0396396999985882;2454
292;1.0417321999993874;2453
293;1.0438208999985363;2453
294;1.0457244999997783;2452
295;1.0487075999990338;2452
296;1.0507124999985535;2451
297;1.0526616999995895;2451
298;1.0547712999996293;2451
299;1.0577752999997756;2450
300;1.05978099999993;2450
301;1.0628247999993619;2450
302;1.06579899999997;2449
303;1.0688138999994408;2449
304;1.0718210999984876;2448
305;1.0748387999992701;2447
306;1.0777892999994947;2447
307;1.0808144999991782;2446
308;1.0838188999987324;2446
309;1.0858068999987154;2445
310;1.0888674999987416;2445
311;1.0918830999999045;2444
312;1.0948532999991585;2444
313;1.097870799998418;2443
314;1.1008079999992333;2443
315;1.1038508999990881;2442
316;1.1068789999990258;2442
317;1.1098267999987002;2441
318;1.1128367000001163;2440
319;1.1148161000000982;2440
320;1.1177924999992683;2440
321;1.1197936999997182;2439
322;1.1216107000000193;2439
323;1.1236675000000105;2439
324;1.1258248999984062;2438
325;1.1288175999998202;2438
326;1.1307062999985646;2437
327;1.1343385000000126;2436
328;1.1382721999998466;2435
329;1.1423692999997002;2434
330;1.1452235999986442;2434
331;1.1492269999998825;2433
332;1.151894299999185;2433
333;1.1548531999997067;2432
334;1.157895299998927;2432
335;1.1609952999988309;2432
336;1.1639914999996108;2431
337;1.1669937999995454;2431
338;1.1702473999994254;2431
339;1.1743265999994037;2430
340;1.1787776999990456;2429
341;1.1823362999984965;2428
342;1.1866811999989295;2427
343;1.1917015999988507;2426
344;1.1963729999988573;2425
345;1.2007121999995434;2424
346;1.2056984999999258;2423
347;1.2103667999999743;2423
348;1.2148219999999128;2423
349;1.2198545999999624;2422
350;1.224835199998779;2421
351;1.2298486999989109;2420
352;1.234826999998404;2419
353;1.23982949999845;2418
354;1.2433169999985694;2417
355;1.2476950000000215;2416
356;1.2516422999997303;2415
357;1.2556452999997418;2415
358;1.2591627999991033;2414
359;1.2621403999983158;2413
360;1.2650454999984504;2413
361;1.2691925999988598;2412
362;1.2733797000000777;2412
363;1.2759483999998338;2411
364;1.278930799999216;2411
365;1.281962899998689;2410
366;1.2849078999988706;2409
367;1.287901099998635;2409
368;1.29149519999919;2408
369;1.295536899999206;2407
370;1.2993600999998307;2406
371;1.3033750999984477;2405
372;1.3063188999985869;2405
373;1.309923799999524;2404
374;1.3130591999997705;2403
375;1.3160731999996642;2402
376;1.3190586000000621;2401
377;1.3218901000000187;2401
378;1.324868099998639;2400
379;1.3270223999988957;2400
380;1.3298906999989413;2399
381;1.3328923999997642;2399
382;1.3356792999984464;2398
383;1.3379848999993555;2397
384;1.340914200000043;2397
385;1.3438759000000573;2396
386;1.347485799999049;2396
387;1.3514007999983733;2395
388;1.355196499998783;2394
389;1.3592093999995996;2393
390;1.3623669999997219;2393
391;1.3653094999990572;2393
392;1.3677671999994345;2392
393;1.370926599998711;2391
394;1.3739100999991933;2390
395;1.3771137999992789;2390
396;1.3799046999993152;2390
397;1.3832583999992494;2389
398;1.3874489999998332;2389
399;1.391432899999927;2388
400;1.395378499999424;2388
401;1.3992202999997971;2387
402;1.4039155999998911;2386
403;1.4090701999994053;2385
404;1.4137579999987793;2385
405;1.417361299998447;2384
406;1.4203297999993083;2383
407;1.423050699999294;2383
408;1.4259724999992613;2382
409;1.4292475999991439;2382
410;1.431977399999596;2381
411;1.4352018999998108;2381
412;1.438231399999495;2380
413;1.4411987999992562;2380
414;1.4441994999997405;2379
415;1.4472353000001021;2379
416;1.4512242000000697;2378
417;1.454211899999791;2378
418;1.45819979999942;2377
419;1.461035999998785;2377
420;1.46396299999833;2376
421;1.4668766999984655;2376
422;1.4699262999984057;2376
423;1.4728680999996868;2375
424;1.4759151999987807;2375
425;1.479845399999249;2374
426;1.4833554999986518;2374
427;1.4873638999997638;2373
428;1.4914001999986795;2372
429;1.4938003999996;2372
430;1.4958037999986118;2371
431;1.4993488999989495;2371
432;1.5033695999991323;2370
433;1.5074073999985558;2369
434;1.509863299999779;2368
435;1.51291129999845;2368
436;1.5159320999991905;2367
437;1.518919399999504;2367
438;1.521942699999272;2366
439;1.5247247999996034;2365
440;1.527042599998822;2365
441;1.5319259999996575;2364
442;1.5370113999997557;2364
443;1.541216199999326;2362
444;1.5459105999998428;2362
445;1.550946399998793;2361
446;1.5558017999992444;2361
447;1.5604024999993271;2360
448;1.564356199998656;2360
449;1.5687438999993901;2359
450;1.5722404999996797;2359
451;1.5751277999988815;2358
452;1.5785753000000113;2358
453;1.5826136999985465;2358
454;1.5862614999987272;2358
455;1.5890909999998257;2358
456;1.593009099999108;2358
457;1.5962271999997029;2357
458;1.5992496999988361;2357
459;1.602181099999143;2356
460;1.6052383999995072;2356
461;1.6082374999987223;2356
462;1.6112240999991627;2356
463;1.6152328999996826;2356
464;1.6181570999997348;2355
465;1.6210879999998724;2355
466;1.6252153999994334;2354
467;1.6282249999985652;2354
468;1.6312201000000641;2353
469;1.6339154999986931;2353
470;1.6372279999995953;2353
471;1.6402437999986432;2353
472;1.6429832999983773;2353
473;1.6462534999991476;2353
474;1.649122399998305;2352
475;1.6522291999990557;2352
476;1.6552259999989474;2352
477;1.65825009999935;2352
478;1.6612324999987322;2352
479;1.6642893999996886;2352
480;1.6680554999984452;2352
481;1.6721253999985493;2351
482;1.6752278999992996;2352
483;1.6782269999985147;2352
484;1.6810622999983025;2351
485;1.6842550999990635;2351
486;1.688252599999032;2350
487;1.6911043000000063;2350
488;1.6942501999983506;2350
489;1.6982380999997986;2349
490;1.7012280999988434;2349
491;1.704269399999248;2349
492;1.7072173999986262;2349
493;1.7100811999989673;2348
494;1.7130317999999534;2348
495;1.7162285999984306;2347
496;1.720245699998486;2346
497;1.7232542999990983;2346
498;1.7259716999997181;2346
499;1.7292432999984158;2346
500;1.7322301999993215;2346
501;1.735234699999637;2345
502;1.7382289999986824;2345
503;1.7412456999991264;2345
504;1.7440167999993719;2345
505;1.7472319999997126;2344
506;1.75024459999986;2344
507;1.753222099998311;2344
508;1.7560978999990766;2344
509;1.75892119999844;2344
510;1.762222199999087;2344
511;1.7652287000000797;2344
512;1.7682280999997602;2344
513;1.771266799998557;2344
514;1.7742266999994172;2344
515;1.7784232999983942;2344
516;1.7824909999999363;2344
517;1.7864793999997346;2345
518;1.7904691999992792;2345
519;1.7944473999996262;2345
520;1.798474899998837;2345
521;1.802473399999144;2345
522;1.8065626999996311;2344
523;1.8100916999992478;2345
524;1.813373099999808;2345
525;1.8161137999995844;2345
526;1.8191253999993933;2345
527;1.8220846999993228;2345
528;1.825077899999087;2345
529;1.8281204999984766;2345
530;1.8311397999987093;2345
531;1.834158399999069;2345
532;1.8371544999990874;2345
533;1.840117099998679;2345
534;1.8430534999988595;2344
535;1.8461343999988458;2345
536;1.8491419999991194;2345
537;1.8521230999995169;2345
538;1.855069999999614;2345
539;1.8581458999997267;2345
540;1.8611336999983905;2345
541;1.864038799998525;2345
542;1.8671404999986407;2345
543;1.8701376999997592;2345
544;1.8741482999994332;2345
545;1.8771703999991587;2345
546;1.8801488999997673;2345
547;1.8831482999994478;2345
548;1.8858915999990131;2345
549;1.8889760999991267;2346
550;1.8919529999984661;2346
551;1.895156999999017;2346
552;1.8983290999985911;2346
553;1.9023648999991565;2346
554;1.9063904999984516;2346
555;1.910170699999071;2346
556;1.9141179999987799;2346
557;1.9181728999992629;2346
558;1.9209248999995907;2346
559;1.9239199999992707;2346
560;1.9271438999985548;2346
561;1.9301437999984046;2346
562;1.9331349999993108;2346
563;1.9362119999987044;2346
564;1.9391574000001128;2347
565;1.942231199998787;2347
566;1.9450028999999631;2347
567;1.9478245999998762;2346
568;1.9509698999991087;2347
569;1.9539919999988342;2346
570;1.956979799999317;2346
571;1.9599469999993744;2346
572;1.963062799999534;2346
573;1.9665196999994805;2346
574;1.970476399999825;2345
575;1.9744965999998385;2346
576;1.9774698999990505;2346
577;1.9813927999985026;2345
578;1.9854270999985602;2346
579;1.9894084999996267;2345
580;1.9928919999983918;2346
581;1.9963294999997743;2346
582;1.9993398999995406;2346
583;2.0021723999998358;2346
584;2.005055799998445;2345
585;2.0081775999988167;2345
586;2.0111448999996355;2345
587;2.013980099998662;2345
588;2.016975499998807;2345
589;2.0199752999997145;2345
590;2.0229674999991403;2346
591;2.0258046999988437;2346
592;2.028872599999886;2346
593;2.032551099999182;2346
594;2.0364096999983303;2346
595;2.040423999998893;2346
596;2.0444134999997914;2346
597;2.04842109999845;2346
598;2.0524172999994335;2346
599;2.0564260999999533;2346
600;2.0589575999983936;2345
601;2.0623703000001115;2345
602;2.0664099999994505;2345
603;2.0703903999983595;2345
604;2.0739262999995844;2345
605;2.0773535999996966;2346
606;2.081411899998784;2346
607;2.085430399998586;2346
608;2.0893421999990096;2346
609;2.092939000000115;2345
610;2.096201699998346;2345
611;2.0991740999998;2345
612;2.1021670999998605;2345
613;2.1049862999989273;2345
614;2.107955999999831;2346
615;2.110942100000102;2345
616;2.113949099999445;2345
617;2.1169497999999294;2345
618;2.120601999999053;2345
619;2.1243614999984857;2346
620;2.128412299998672;2346
621;2.1324260999990656;2346
622;2.1360707999992883;2346
623;2.1390194999985397;2346
624;2.1425302999996347;2346
625;2.146571100000074;2346
626;2.1505443999994895;2346
627;2.154528199998822;2345
628;2.15855289999854;2345
629;2.1624568999995972;2346
630;2.166429299999436;2346
631;2.170447899999999;2346
632;2.173382099999799;2347
633;2.1774016999988817;2347
634;2.1814633999983926;2347
635;2.185399399999369;2347
636;2.1894453999993857;2347
637;2.192979800000103;2347
638;2.1964207000000897;2346
639;2.200229299998682;2346
640;2.2032273999993777;2346
641;2.2062045999991824;2346
642;2.209038799999689;2346
643;2.212152199999764;2346
644;2.215001399999892;2346
645;2.218145999999251;2346
646;2.2211572999985947;2346
647;2.224142999999458;2347
648;2.2271476999994775;2347
649;2.2301506999992853;2348
650;2.2331475999999384;2348
651;2.2361504999989847;2348
652;2.239145699999426;2348
653;2.2420207999984996;2348
654;2.2451533999992535;2348
655;2.248928999999407;2348
656;2.251967700000023;2347
657;2.254970499998308;2347
658;2.257911400000012;2347
659;2.26092509999944;2347
660;2.263930999999502;2347
661;2.267480599999544;2348
662;2.27149929999905;2349
663;2.2755696999993233;2349
664;2.2782805999995617;2349
665;2.2813540999995894;2349
666;2.284186299999419;2349
667;2.2872233999987657;2349
668;2.290219499998784;2349
669;2.292962899999111;2349
670;2.2961411999986012;2349
671;2.2991425000000163;2349
672;2.302129399999103;2349
673;2.3051617999990412;2349
674;2.3079792999997153;2349
675;2.3108916000001045;2349
676;2.3127898999991885;2349
677;2.3147996999996394;2348
678;2.3179536999996344;2348
679;2.3210587999983545;2348
680;2.3239749999993364;2349
681;2.3258133999988786;2349
682;2.3291738999996596;2349
683;2.3321460999995907;2349
684;2.3349524999994173;2349
685;2.3380798999987746;2349
686;2.340834199998426;2349
687;2.3443708999984665;2350
688;2.3485511999988375;2350
689;2.352520499998718;2350
690;2.3563673999997263;2350
691;2.3588571999989654;2350
692;2.3622654999999213;2350
693;2.3650565999996616;2351
694;2.3680694999984553;2351
695;2.3710602999999537;2351
696;2.373941299998478;2351
697;2.377040399998805;2351
698;2.3800752999995893;2351
699;2.383061699998507;2351
700;2.386060599999837;2351
701;2.388857799998732;2351
702;2.390764299998409;2352
703;2.3928087999993295;2352
704;2.3947957000000315;2352
705;2.3967600999985734;2352
706;2.398782399999618;2352
707;2.4007986999986315;2352
708;2.403305799998634;2352
709;2.406253999999535;2352
710;2.4088709999996354;2352
711;2.4122543999983463;2352
712;2.4150678999994852;2352
713;2.4180438999992475;2352
714;2.4208112999986042;2352
715;2.422829699999056;2352
716;2.425744299998769;2352
717;2.4290180999996664;2352
718;2.4320222999995167;2352
