;time;amplitude
0;0.003350799999680021;2479
1;0.006340199999613105;2479
2;0.00956159999986994;2480
3;0.013395699999819044;2479
4;0.016379300001062802;2479
5;0.019369600000572973;2479
6;0.02236059999995632;2479
7;0.0253658000001451;2479
8;0.028417200001058518;2478
9;0.03147209999951883;2478
10;0.034370000001217704;2478
11;0.03776160000052187;2478
12;0.0401904000009381;2478
13;0.04377610000119603;2478
14;0.047328500000730855;2478
15;0.05078730000059295;2477
16;0.053311900001062895;2477
17;0.05630910000036238;2478
18;0.05930660000012722;2478
19;0.062336599999980535;2478
20;0.06627110000044922;2477
21;0.06931170000098064;2477
22;0.07291900000018359;2477
23;0.07625890000053914;2477
24;0.07927980000022217;2477
25;0.08212529999946128;2477
26;0.08536950000052457;2477
27;0.08808669999962149;2477
28;0.09015879999969911;2477
29;0.09316870000111521;2477
30;0.09619740000016463;2477
31;0.09972940000079689;2477
32;0.10220939999999246;2477
33;0.10519960000056017;2477
34;0.10825889999978244;2477
35;0.11122580000119342;2477
36;0.11431260000063048;2478
37;0.11717440000029455;2478
38;0.12084320000030857;2478
39;0.12320290000025125;2478
40;0.12662319999981264;2478
41;0.1292001000001619;2477
42;0.132258699999511;2477
43;0.135389999999461;2477
44;0.13819080000030226;2477
45;0.14131559999987076;2477
46;0.1442196000007243;2477
47;0.14791569999943022;2476
48;0.151342700000896;2476
49;0.1547104000001127;2477
50;0.15713700000014796;2477
51;0.16054989999975078;2477
52;0.1631942000003619;2477
53;0.16621450000093319;2477
54;0.16799320000063744;2477
55;0.17017570000098203;2477
56;0.17314790000091307;2477
57;0.17617090000021562;2478
58;0.17914810000002035;2478
59;0.18117569999958505;2477
60;0.18408219999946596;2477
61;0.1871647000007215;2477
62;0.19014810000044235;2477
63;0.1920460000001185;2477
64;0.19414839999990363;2477
65;0.19630230000075244;2477
66;0.1991648000002897;2477
67;0.20259989999976824;2477
68;0.20516359999965061;2477
69;0.20865059999960067;2477
70;0.21114680000027874;2478
71;0.21311989999958314;2478
72;0.21625140000105603;2478
73;0.21916330000021844;2478
74;0.22205570000005537;2478
75;0.2241308000011486;2478
76;0.22629670000060287;2478
77;0.22936610000033397;2478
78;0.2324401999994734;2477
79;0.2351340999994136;2478
80;0.2369725999997172;2477
81;0.2390350000005128;2477
82;0.2409784999999829;2477
83;0.24294110000118962;2477
84;0.24513289999958943;2477
85;0.24716910000097414;2477
86;0.2500586000005569;2477
87;0.2522542999995494;2477
88;0.25531559999944875;2477
89;0.2580820000002859;2477
90;0.26149919999988924;2477
91;0.26419150000037916;2477
92;0.2672352999998111;2477
93;0.27016790000016044;2477
94;0.2736967000000732;2477
95;0.2765742000010505;2477
96;0.2794685999997455;2477
97;0.28333810000003723;2477
98;0.2860816000011255;2477
99;0.289296099999774;2477
100;0.2921870000009221;2477
101;0.2942843000000721;2477
102;0.29735140000047977;2477
103;0.30026900000120804;2477
104;0.30328890000055253;2477
105;0.3063543000007485;2477
106;0.30913689999943017;2477
107;0.3112928999998985;2477
108;0.3142320999995718;2477
109;0.3170836999997846;2476
110;0.32027759999982663;2477
111;0.3231426000002102;2477
112;0.32512970000061614;2477
113;0.3281870999999228;2477
114;0.3312470000000758;2477
115;0.33441470000070694;2477
116;0.33753620000061346;2476
117;0.341653800000131;2476
118;0.3456055999995442;2477
119;0.3485851999994338;2477
120;0.3523194000008516;2476
121;0.35534000000006927;2477
122;0.3583803000001353;2477
123;0.3614623000012216;2477
124;0.3643093000009685;2477
125;0.36757159999979194;2477
126;0.37032900000122027;2477
127;0.3733057999997982;2477
128;0.37620310000056634;2477
129;0.37932720000026166;2477
130;0.38238749999982247;2477
131;0.38547120000112045;2477
132;0.38845760000003793;2477
133;0.3914535000003525;2478
134;0.3944848999999522;2478
135;0.39749119999942195;2477
136;0.40039989999968384;2477
137;0.40342580000105954;2477
138;0.4063982000006945;2477
139;0.40941279999969993;2478
140;0.41244650000044203;2477
141;0.41542440000011993;2477
142;0.41831420000016806;2477
143;0.42121679999945627;2477
144;0.4241808000006131;2477
145;0.427099200000157;2477
146;0.4301837000002706;2477
147;0.4331846000004589;2477
148;0.43614250000064203;2477
149;0.43913120000070194;2477
150;0.4410912000003009;2477
151;0.4431263000005856;2477
152;0.44672560000071826;2477
153;0.44979650000095717;2477
154;0.4526499000003241;2477
155;0.45674959999996645;2477
156;0.4606598999998823;2477
157;0.4637399000002915;2477
158;0.46716860000015004;2477
159;0.4707588000001124;2477
160;0.47468509999998787;2478
161;0.47852729999976873;2477
162;0.4815505000005942;2478
163;0.48417800000061106;2478
164;0.48720700000012584;2478
165;0.490657000000283;2478
166;0.49355540000033216;2478
167;0.4966359999998531;2478
168;0.49955190000036964;2478
169;0.5022858000011183;2478
170;0.5056213000007119;2478
171;0.5084244999998191;2479
172;0.5123204999999871;2478
173;0.5153282999999647;2478
174;0.5183558999997331;2478
175;0.521263500000714;2478
176;0.5241865999996662;2478
177;0.5272827000007965;2478
178;0.530206299999918;2478
179;0.5332309000004898;2478
180;0.536326999999801;2478
181;0.5398167000003014;2477
182;0.5427250000011554;2477
183;0.5457304999999906;2477
184;0.5483930000009423;2477
185;0.5525568000011845;2477
186;0.5553101000004972;2477
187;0.558452600000237;2476
188;0.5613425000010466;2476
189;0.5641508999997313;2476
190;0.5672983000004024;2477
191;0.57053310000083;2477
192;0.5733730000010837;2476
193;0.5763246999995317;2476
194;0.579482500001177;2476
195;0.582260999999562;2476
196;0.5851517999999487;2476
197;0.5892877999995108;2476
198;0.5926550000003772;2476
199;0.5966313000008086;2476
200;0.6002134000009391;2476
201;0.6032181000009587;2477
202;0.6066627000000153;2477
203;0.610348399999566;2476
204;0.6134911999997712;2476
205;0.6162739000010333;2477
206;0.6190624999999272;2477
207;0.6222469000003912;2477
208;0.6251388000000588;2477
209;0.6282518000007258;2477
210;0.631299399999989;2478
211;0.634062900000572;2478
212;0.636136200000692;2478
213;0.6391144000008353;2478
214;0.6422720999999001;2478
215;0.6454621000011684;2478
216;0.648288300000786;2478
217;0.6511492999998154;2478
218;0.6531751000002259;2478
219;0.6562699999994948;2478
220;0.6590995000005933;2478
221;0.6623584999997547;2478
222;0.6653566000004503;2477
223;0.6681805999996868;2477
224;0.6713369000008242;2477
225;0.6744515000009415;2477
226;0.6773300000004383;2477
227;0.6800975999994989;2477
228;0.6834054999999353;2477
229;0.6864559999994526;2477
230;0.6893044000007649;2477
231;0.6923162000002776;2476
232;0.6954292000009445;2476
233;0.6983166000009078;2476
234;0.7011333999998897;2476
235;0.7042706000011094;2476
236;0.7070633000002999;2476
237;0.7100943000004918;2475
238;0.7122338000008313;2475
239;0.7154492000008759;2476
240;0.71814330000052;2476
241;0.7212675000009767;2476
242;0.7242038000003959;2476
243;0.7271031000000221;2476
244;0.7302359000004799;2476
245;0.733662300001015;2476
246;0.7376361999995424;2476
247;0.7416654999997263;2476
248;0.745937400000912;2476
249;0.7502782000010484;2477
250;0.7553606000001309;2477
251;0.7600550000006479;2477
252;0.7638007999994443;2477
253;0.7679466999998112;2477
254;0.7717718000003515;2477
255;0.7753565000002709;2478
256;0.7796789000003628;2478
257;0.7838203999999678;2478
258;0.787677000000258;2478
259;0.7907150000010006;2477
260;0.7946742000003724;2477
261;0.7977994000011677;2477
262;0.8013802000004944;2477
263;0.8047452999999223;2478
264;0.8083593999999721;2477
265;0.8127426999999443;2477
266;0.8156306000000768;2477
267;0.8182680999998411;2477
268;0.8216523999999481;2477
269;0.8247219000004407;2478
270;0.8276218000009976;2478
271;0.8315572999999858;2478
272;0.8342351999999664;2477
273;0.8377455000008922;2477
274;0.8406238000006852;2478
275;0.8447539000007964;2478
276;0.8487469000010606;2477
277;0.852797699999428;2477
278;0.8563809000006586;2477
279;0.8597153000009712;2477
280;0.8638370999997278;2478
281;0.8675192999999126;2477
282;0.8707757000011043;2477
283;0.8735751000003802;2477
284;0.8766672000001563;2477
285;0.8807395000003453;2478
286;0.8844790000002831;2477
287;0.8887018999994325;2478
288;0.8927569999996194;2478
289;0.8967720000000554;2477
290;0.8995734000000084;2477
291;0.9027082000011433;2478
292;0.9068758000012167;2477
293;0.9107794999999896;2477
294;0.9146646000008332;2477
295;0.9183412000002136;2477
296;0.9216909999995551;2477
297;0.9257434000010107;2477
298;0.9296512000000803;2477
299;0.9338267000002816;2476
300;0.9365600000000995;2477
301;0.940408500000558;2477
302;0.9443713000000571;2477
303;0.9477084000009199;2477
304;0.9512943999998242;2477
305;0.9547624000006181;2476
306;0.9586500000004889;2477
307;0.9627325000001292;2477
308;0.9655299000005471;2477
309;0.9682916000001569;2477
310;0.9717290999997203;2477
311;0.9744994000011502;2477
312;0.9787307000005967;2478
313;0.9828765000002022;2478
314;0.9856993000012153;2478
315;0.9897070999995776;2478
316;0.9934730000004492;2479
317;0.9975566000011895;2478
318;1.0003061999996135;2479
319;1.003516300001138;2479
320;1.0065778999996837;2478
321;1.010293900000761;2478
322;1.0132556999997178;2478
323;1.0162326999998186;2478
324;1.0194695000009233;2479
325;1.0221689000009064;2479
326;1.025196099999448;2478
327;1.0282041000009485;2479
328;1.0313220000007277;2479
329;1.0340558999996574;2479
330;1.0371052000009513;2479
331;1.0403158999997686;2479
332;1.0434273000009853;2479
333;1.0462766000000556;2478
334;1.0494297000004735;2478
335;1.052069000001211;2477
336;1.0554401999997935;2477
337;1.0582832000000053;2478
338;1.0613243999996484;2477
339;1.0643359000005148;2477
340;1.0670656000002054;2477
341;1.0690598000001046;2478
342;1.0721386000004713;2477
343;1.0751101000005292;2477
344;1.0782393999998021;2477
345;1.0813171999998303;2477
346;1.0841772000003402;2477
347;1.0872827000002872;2477
348;1.0901305999996111;2477
349;1.0921321000005264;2477
350;1.095404800000324;2477
351;1.0982490999995207;2477
352;1.1011899999994057;2477
353;1.1044662000003882;2476
354;1.1072705000005953;2476
355;1.110466300000553;2477
356;1.1133522000000085;2477
357;1.1159901000009995;2476
358;1.1192315000007511;2476
359;1.1229160000002594;2476
360;1.1265598999998474;2476
361;1.1298287999998138;2476
362;1.1335619000001316;2476
363;1.1363309000007575;2476
364;1.1396385000007285;2476
365;1.1425813000005292;2475
366;1.145657900000515;2476
367;1.1481194000007235;2476
368;1.1511410000002797;2476
369;1.1543555999996897;2475
370;1.1573838000003889;2475
371;1.160286399999677;2475
372;1.1633251000002929;2475
373;1.1663217000004806;2475
374;1.1692117000002327;2475
375;1.1722050000007584;2475
376;1.1753489000002446;2475
377;1.1783157999998366;2475
378;1.1811496000009356;2475
379;1.1841560000011668;2474
380;1.1863154000002396;2475
381;1.1891348000008293;2475
382;1.1923311000009562;2475
383;1.1953214000004664;2475
384;1.1980983000012202;2474
385;1.2002709000007599;2474
386;1.2032013000007282;2474
387;1.2063455999996222;2474
388;1.2092781999999715;2474
389;1.2122876000012184;2474
390;1.215354899999511;2474
391;1.2181737999999314;2474
392;1.2213222999998834;2474
393;1.224608200000148;2474
394;1.227555499999653;2474
395;1.2303549999996903;2474
396;1.2333214999998745;2473
397;1.2362221000003046;2473
398;1.239589300001171;2474
399;1.2423892999995587;2474
400;1.2453918999999587;2473
401;1.2483792000002722;2473
402;1.2512323999999353;2473
403;1.2543323000008968;2473
404;1.2574368999994476;2473
405;1.260442900000271;2473
406;1.263469499999701;2473
407;1.2664516000004369;2473
408;1.2693091000001004;2472
409;1.272423100001106;2473
410;1.2754022000008263;2473
411;1.2784038999998302;2473
412;1.2814206000002741;2472
413;1.2841513000003033;2472
414;1.2862371999999596;2472
415;1.2894364000003407;2472
416;1.2924323000006552;2472
417;1.2951800000009825;2472
418;1.2984515000007377;2471
419;1.3011323000009725;2471
420;1.3043041000000812;2471
421;1.3073165999994671;2471
422;1.3102741000002425;2471
423;1.3132586000010633;2471
424;1.3163130000011734;2471
425;1.3194421999996848;2471
426;1.3224351999997452;2470
427;1.325457599999936;2470
428;1.32823339999959;2470
429;1.3314226000002236;2470
430;1.3341438000006747;2469
431;1.3374741000006907;2470
432;1.340348300000187;2469
433;1.3434784000000946;2469
434;1.3464770999999018;2469
435;1.3494742000002589;2469
436;1.35238229999959;2469
437;1.3554920999995375;2469
438;1.3584833000004437;2469
439;1.3613717000007455;2469
440;1.3644784000007348;2469
441;1.3670431000009557;2469
442;1.3704684000003908;2469
443;1.3731726000005438;2469
444;1.3764800000008108;2469
445;1.3794498999995994;2469
446;1.3824426000010135;2468
447;1.3851654999998573;2468
448;1.388445300000967;2468
449;1.3914282999994612;2467
450;1.3944487999997364;2467
451;1.3973753999998735;2467
452;1.4003592000008211;2467
453;1.403167200000098;2467
454;1.4061768000010488;2467
455;1.4093642999996518;2467
456;1.4128600000003644;2467
457;1.4169323999994958;2466
458;1.4208489000011468;2466
459;1.4247451999999612;2466
460;1.4274598000010883;2466
461;1.4304376000000047;2466
462;1.4334204000006139;2466
463;1.436504799999966;2465
464;1.4394592999997258;2465
465;1.4420196000010037;2465
466;1.4455575000010867;2465
467;1.4485839999997552;2465
468;1.4525900999997248;2464
469;1.4567394000005152;2464
470;1.460737400000653;2464
471;1.4647356000004947;2464
472;1.468694700000924;2464
473;1.4721965000007913;2464
474;1.4756947999994736;2464
475;1.4793451000005007;2463
476;1.482724400000734;2463
477;1.48543410000093;2463
478;1.4884362000011606;2463
479;1.4913109000008262;2463
480;1.4944656999996369;2463
481;1.497512199999619;2462
482;1.5001434999994672;2462
483;1.5022597999995924;2462
484;1.5051963000005344;2461
485;1.5087665999999444;2461
486;1.5127112999998644;2461
487;1.5162883000011789;2461
488;1.519662900000185;2460
489;1.522546100000909;2459
490;1.5253460000003543;2459
491;1.5282607000008284;2459
492;1.5312960999999632;2458
493;1.5341463000004296;2458
494;1.5378292000004876;2458
495;1.5418504000008397;2458
496;1.545874499999627;2457
497;1.5492238999995607;2457
498;1.5527106000008644;2456
499;1.5567699000002904;2456
500;1.5607761000010214;2456
501;1.5637550999999803;2455
502;1.5673031000005722;2455
503;1.5706160999998247;2455
504;1.5741971999996167;2455
505;1.577148100001068;2455
506;1.5790599000010843;2455
507;1.5811322999998083;2455
508;1.5831706000008126;2454
509;1.5861148000003595;2454
510;1.5892208999994182;2454
511;1.5926625000010972;2453
512;1.5951960000002146;2453
513;1.598072200000388;2453
514;1.6000861000011355;2453
515;1.6019819000011921;2452
516;1.6039748000002874;2453
517;1.6060677999994368;2453
518;1.6080820000006497;2453
519;1.6110320999996475;2452
520;1.613048000001072;2452
521;1.6150711999998748;2452
522;1.617100900000878;2451
523;1.61903490000077;2452
524;1.621037900000374;2451
525;1.6230083999998897;2451
526;1.6250218999994104;2451
527;1.6270337999994808;2451
528;1.629078899999513;2451
529;1.6310912999997527;2451
530;1.633106700001008;2450
531;1.63507220000065;2450
532;1.6371534000008978;2450
533;1.6390544999994745;2449
534;1.6411394000006112;2449
535;1.644129600001179;2449
536;1.646128200000021;2449
537;1.6481005000005098;2448
538;1.6500415000009525;2448
539;1.6521657000012056;2448
540;1.6551603999996587;2448
541;1.657167000001209;2448
542;1.6591664000006858;2448
543;1.6621635999999853;2447
544;1.665181100001064;2448
545;1.6670799000003171;2448
546;1.6690742999999202;2447
547;1.6711663999994926;2447
548;1.6741689999998925;2447
549;1.6771518999994441;2447
550;1.6791236000008212;2446
551;1.6812403000003542;2446
552;1.6840943000006519;2446
553;1.6871757000008074;2445
554;1.6891336000007868;2445
555;1.6910342999999557;2445
556;1.693159899999955;2444
557;1.6951382999995985;2444
558;1.697143600000345;2444
559;1.7002948999997898;2444
560;1.7036602000007406;2444
561;1.7063976000008552;2444
562;1.709404799999902;2444
563;1.7124144999997952;2443
564;1.7154850999995688;2443
565;1.7182303999998112;2443
566;1.7213069000008545;2443
567;1.7243247000005795;2442
568;1.7270693999998912;2442
569;1.7303651000001992;2442
570;1.7333412999996654;2442
571;1.7364090999999462;2441
572;1.739127599999847;2441
573;1.7423049999997602;2441
574;1.745392400000128;2441
575;1.74837320000006;2440
576;1.7511835999994219;2440
577;1.7533068000011554;2440
578;1.756199999999808;2440
579;1.758198600000469;2439
580;1.7600626000003103;2439
581;1.7622215999999753;2439
582;1.7642379999997502;2439
583;1.7661950000001525;2439
584;1.7682870000007824;2439
585;1.7714882000000216;2439
586;1.774460900000122;2439
587;1.777375600000596;2439
588;1.780491700001221;2438
589;1.783565900001122;2438
590;1.7865027000007103;2437
591;1.7895023000000947;2437
592;1.7924340999998094;2437
593;1.7954807999994955;2437
594;1.7984807000011642;2436
595;1.801081300000078;2436
596;1.8034774999996444;2436
597;1.8064933000005112;2436
598;1.8094880000007834;2436
599;1.812194800000725;2436
600;1.8154271000003064;2435
601;1.8181289000003744;2435
602;1.821079400000599;2435
603;1.8232107000003452;2435
604;1.826205299999856;2435
605;1.8292472000011912;2435
606;1.8313419000005524;2434
607;1.8342326000001776;2434
608;1.837613900001088;2434
609;1.8413479999999254;2433
610;1.8448291000004247;2433
611;1.848794600000474;2432
612;1.8522682000002533;2432
613;1.8550482000009652;2431
614;1.8570101000004797;2432
615;1.8589621999999508;2432
616;1.86097780000091;2431
617;1.8630013000001782;2431
618;1.864928000000873;2431
619;1.8670106000008673;2431
620;1.8690105999994557;2431
621;1.87095810000028;2431
622;1.8730137000002287;2430
623;1.875074699999459;2430
624;1.8770555000010063;2430
625;1.8789828999997553;2429
626;1.8811774999994668;2429
627;1.884025200000906;2429
628;1.885996900000464;2429
629;1.8890602000010404;2429
630;1.8910720000003494;2429
631;1.8930258000000322;2428
632;1.8950026000002254;2428
633;1.8970005000010133;2428
634;1.8994443000010506;2427
635;1.902062900000601;2427
636;1.9043880000008357;2427
637;1.9070391999994172;2427
638;1.909082699999999;2427
639;1.911056599999938;2427
640;1.9130543999999645;2427
641;1.915049799999906;2427
642;1.9170678000009502;2426
643;1.9204545000011422;2426
644;1.9230662000009033;2426
645;1.9252025000005233;2426
646;1.9281069000007847;2425
647;1.9311113000003388;2425
648;1.933085700000447;2424
649;1.9351511000004393;2424
650;1.9382722999998805;2424
651;1.9400129000005109;2424
652;1.9420272999996087;2424
653;1.944036299999425;2423
654;1.9460254999994504;2423
655;1.9480177000004915;2423
656;1.950032900000224;2423
657;1.9521643000007316;2422
658;1.9557199999999284;2422
659;1.958114500001102;2422
660;1.960143700000117;2422
661;1.9621335000010731;2422
662;1.9651185000002442;2422
663;1.967102500000692;2421
664;1.9701468000002933;2421
665;1.9723597000011068;2421
666;1.9751271000004635;2420
667;1.9771684999996069;2420
668;1.979112000000896;2420
669;1.9811048000010487;2420
670;1.9831066000006103;2419
671;1.9864720000005036;2419
672;1.9891905000004044;2419
673;1.9920572000009997;2419
674;1.9951992999995127;2419
675;1.9980145000008633;2419
676;2.0000292000004265;2419
677;2.002086700000291;2419
678;2.0052911000002496;2418
679;2.0081874999996217;2418
680;2.0101274000007834;2419
681;2.012123500000598;2418
682;2.014134600000034;2418
683;2.0161330999999336;2418
684;2.0180386000010913;2417
685;2.0215774000007514;2417
686;2.0241767000006803;2417
687;2.0262060000004567;2417
688;2.028198699999848;2417
689;2.030186899999535;2417
690;2.033195699999851;2416
691;2.03510389999974;2416
692;2.0373804999999265;2415
693;2.040230900000097;2415
694;2.0431047000001854;2415
695;2.0451008;2415
696;2.0471111000006204;2415
697;2.0500393000002077;2415
698;2.052249300000767;2415
699;2.055031300000337;2415
700;2.0570511000005354;2415
701;2.0590408999996725;2414
702;2.0611048999999184;2414
703;2.063110400000369;2414
704;2.065106800000649;2413
705;2.067092999999659;2413
706;2.069270100000722;2413
707;2.0723035000009986;2413
708;2.075105899999471;2412
709;2.077105800000936;2412
710;2.0791659999995318;2412
711;2.0810321000008116;2412
712;2.0832620000001043;2411
713;2.0850680000003194;2411
714;2.088260700000319;2411
715;2.0911030999996;2411
716;2.093169300000227;2411
717;2.095975800000815;2411
