;time;amplitude
0;0.004199699999844597;2473
1;0.0077678999996351195;2473
2;0.011525900000378897;2473
3;0.014757900000404334;2473
4;0.018767100000331993;2473
5;0.02267630000005738;2473
6;0.026663599999665166;2473
7;0.03028549999999086;2473
8;0.03352660000018659;2473
9;0.036487299999862444;2473
10;0.03956449999986944;2473
11;0.043517099999917264;2473
12;0.04642760000024282;2473
13;0.05040960000042105;2473
14;0.05341649999991205;2473
15;0.056469600000127684;2472
16;0.059433200000057695;2472
17;0.062174599999707425;2472
18;0.06545350000033068;2472
19;0.06845599999996921;2472
20;0.07146610000017972;2472
21;0.0755167999996047;2472
22;0.07936940000035975;2471
23;0.08360400000037771;2471
24;0.08756220000032044;2471
25;0.09159989999989193;2471
26;0.09547459999976127;2471
27;0.09962720000021363;2470
28;0.10359510000034788;2470
29;0.1075940000000628;2470
30;0.11160350000045582;2469
31;0.1156143999996857;2469
32;0.11960410000028787;2469
33;0.1234783999998399;2468
34;0.1274452999996356;2468
35;0.13046709999980521;2468
36;0.13447259999975358;2468
37;0.13847249999980704;2468
38;0.14220019999993383;2467
39;0.14543090000006487;2466
40;0.14946839999993244;2466
41;0.15346190000036586;2466
42;0.15746070000022883;2465
43;0.16147170000022015;2464
44;0.16432939999958762;2464
45;0.1674667999996018;2463
46;0.171468300000015;2462
47;0.17547009999998409;2462
48;0.17916070000046602;2461
49;0.18247320000045875;2461
50;0.18621789999997418;2461
51;0.1894745999998122;2461
52;0.19345140000041283;2460
53;0.19747970000025816;2460
54;0.2014486999996734;2459
55;0.20530309999958263;2459
56;0.20824069999980566;2458
57;0.2114516999999978;2458
58;0.21424889999980223;2457
59;0.2174723999996786;2457
60;0.22121719999995548;2456
61;0.22546859999965818;2456
62;0.22914339999988442;2456
63;0.23229170000013255;2455
64;0.2352930999995806;2454
65;0.23827749999963999;2454
66;0.24168989999998303;2454
67;0.2454648000002635;2453
68;0.24823420000029728;2452
69;0.2512125000002925;2452
70;0.25420690000009927;2451
71;0.25720670000009704;2450
72;0.26179620000038994;2449
73;0.26562900000044465;2448
74;0.2696194000000105;2448
75;0.27360870000029536;2447
76;0.27768610000021;2446
77;0.2805551999999807;2445
78;0.2846278999995775;2444
79;0.28862389999994775;2444
80;0.29264080000029935;2443
81;0.2955557000004774;2442
82;0.2996467000002667;2442
83;0.3036147000002529;2440
84;0.30764340000041557;2440
85;0.31159800000023097;2439
86;0.31458110000039596;2438
87;0.31861709999975574;2438
88;0.3226002999999764;2437
89;0.3265789999995832;2437
90;0.329035699999622;2436
91;0.3323116999999911;2435
92;0.33530439999958617;2435
93;0.33832390000043233;2434
94;0.34103609999965556;2434
95;0.344151299999794;2433
96;0.3471478000001298;2432
97;0.35014049999972485;2432
98;0.3532144000000699;2431
99;0.35615020000022923;2430
100;0.3591858999998294;2429
101;0.36208499999975174;2428
102;0.3652001999998902;2428
103;0.36819869999999355;2427
104;0.37119199999960983;2426
105;0.374202900000455;2426
106;0.37719190000007075;2425
107;0.3801954000000478;2424
108;0.3831960999996227;2424
109;0.386207700000341;2423
110;0.3891964000004009;2422
111;0.39219800000046234;2421
112;0.39524340000025404;2421
113;0.39819030000035127;2420
114;0.4012056000001394;2419
115;0.404199200000221;2419
116;0.40713210000012623;2418
117;0.4101098999999522;2417
118;0.4132084000002578;2417
119;0.41615379999984725;2417
120;0.41924250000010943;2416
121;0.42221729999982927;2416
122;0.42511970000032306;2415
123;0.4281217999996443;2415
124;0.4311153999997259;2414
125;0.4342073999996501;2414
126;0.4369920999997703;2413
127;0.4405730999997104;2413
128;0.4446195999998963;2412
129;0.4474409000004016;2411
130;0.4513736999997491;2411
131;0.45419349999974656;2410
132;0.45717919999970036;2409
133;0.46020750000025146;2409
134;0.4632398000003377;2408
135;0.4661961000001611;2408
136;0.4691194999995787;2407
137;0.4721194000003379;2407
138;0.475354299999708;2406
139;0.47948530000030587;2406
140;0.4839127000004737;2405
141;0.48894149999978254;2404
142;0.4938113999996858;2402
143;0.49820420000014565;2402
144;0.5024827999995978;2401
145;0.5050840000003518;2400
146;0.5081491000000824;2400
147;0.5111638999997012;2399
148;0.5141810000004625;2398
149;0.5169948000002478;2398
150;0.5202756999997291;2398
151;0.5231475000000501;2397
152;0.5260293999999703;2397
153;0.5291057000004002;2397
154;0.5321690999999191;2396
155;0.5351743999999599;2396
156;0.5381194999999934;2395
157;0.5411452999996982;2395
158;0.5441467000000557;2395
159;0.5471488000002864;2394
160;0.5503398999999263;2393
161;0.5533241000002818;2393
162;0.5563302999998996;2393
163;0.5591308000002755;2392
164;0.562380999999732;2392
165;0.5670508000002883;2391
166;0.5720004000004337;2391
167;0.5758028999998714;2391
168;0.5794297000002189;2390
169;0.58405219999986;2390
170;0.5889905000003637;2389
171;0.5941634999999224;2389
172;0.5991162999998778;2389
173;0.604016700000102;2389
174;0.6089641999997184;2388
175;0.6134826999996221;2388
176;0.6180520999996588;2387
177;0.6231008000004294;2387
178;0.6280539999997927;2387
179;0.6330778999999893;2387
180;0.6380355999999665;2387
181;0.6430427000004784;2387
182;0.6477229000001898;2387
183;0.6515449999997145;2387
184;0.6560533000001669;2387
185;0.6610641999996005;2387
186;0.6660832999996273;2386
187;0.6708423999998558;2387
188;0.6744635000004564;2386
189;0.678487000000132;2386
190;0.6825588000001517;2386
191;0.68629940000028;2386
192;0.6891142000004038;2386
193;0.6920458000004146;2386
194;0.6950242000002618;2386
195;0.6980221000003439;2386
196;0.7008953000004112;2386
197;0.7030803999996351;2386
198;0.7060903999999937;2386
199;0.7097237999996651;2386
200;0.7135215999996944;2387
201;0.7176037999997789;2387
202;0.7210130000003119;2387
203;0.7246424000004481;2387
204;0.7285972999998194;2388
205;0.7315895000001547;2388
206;0.7345579000002544;2388
207;0.737349500000164;2388
208;0.7403516000003947;2389
209;0.7433428000003914;2389
210;0.7460971999998947;2389
211;0.7491436000000249;2390
212;0.752139399999578;2390
213;0.7551392000004853;2391
214;0.7581762999998318;2391
215;0.761128699999972;2392
216;0.764342100000249;2392
217;0.7673385999996754;2393
218;0.7701908999997613;2393
219;0.773323899999923;2393
220;0.776119799999833;2393
221;0.7789596000002348;2393
222;0.7811116000002585;2394
223;0.784117299999707;2394
224;0.7870835000003353;2394
225;0.7901093000000401;2395
226;0.7930992000001424;2395
227;0.7959362999999939;2396
228;0.7996456999999282;2396
229;0.803587399999742;2396
230;0.8076004000004104;2397
231;0.8111560999996072;2397
232;0.814632900000106;2398
233;0.8185947000001761;2398
234;0.8226032000002306;2398
235;0.826572799999667;2399
236;0.8306044000000838;2400
237;0.8346123000001171;2400
238;0.8386086999998952;2400
239;0.8423275000004651;2401
240;0.8454101999996055;2401
241;0.8496345000003203;2402
242;0.8536216000002241;2403
243;0.857605400000466;2403
244;0.8616485000002285;2403
245;0.8656301999999414;2404
246;0.8696386999999959;2405
247;0.8736847000000125;2405
248;0.877610000000459;2406
249;0.8805628999998589;2406
250;0.8846272000000681;2406
251;0.8885449999997945;2406
252;0.8926386000002822;2407
253;0.8961869000004299;2407
254;0.8993018999999549;2408
255;0.9022952000004807;2408
256;0.9050454999996873;2408
257;0.9082922999996299;2409
258;0.9112888999998177;2410
259;0.9142940000001545;2410
260;0.9173428000003696;2411
261;0.9203379000000496;2411
262;0.9233162000000448;2412
263;0.9263123999999152;2413
264;0.9290862999996534;2414
265;0.9321411999999327;2414
266;0.9351517000004606;2415
267;0.9381155999999464;2416
268;0.9417285999998057;2416
269;0.9454494000001432;2417
270;0.949627099999816;2417
271;0.9536109999999098;2418
272;0.9576029999998354;2419
273;0.9616336999997657;2421
274;0.9656413000002431;2422
275;0.9695723000004364;2423
276;0.973644400000012;2424
277;0.9776431999998749;2425
278;0.9805704000000333;2426
279;0.9832875000001877;2426
280;0.9876407000001564;2427
281;0.9916376999999557;2428
282;0.9954342999999426;2429
283;0.9996166000000812;2429
284;1.002158000000236;2430
285;1.0051370000001043;2430
286;1.0081344000000172;2431
287;1.0111274000000776;2431
288;1.0141411000004155;2432
289;1.0176257000002806;2433
290;1.0200912000000244;2434
291;1.0235132999996495;2434
292;1.0273481000003812;2435
293;1.030388099999982;2436
294;1.0331953000004432;2437
295;1.0364127000002554;2437
296;1.039369799999804;2438
297;1.0423665999996956;2438
298;1.0464105999999447;2439
299;1.0506654999999228;2440
300;1.0546095999998215;2441
301;1.0586166000002777;2442
302;1.062184200000047;2443
303;1.06554049999977;2443
304;1.0696208999997907;2444
305;1.0736279000002469;2445
306;1.0771695000003092;2446
307;1.0806100999998307;2447
308;1.0846182000004774;2447
309;1.0882829000001948;2448
310;1.0915532999997595;2449
311;1.0951684000001478;2449
312;1.0985461999998734;2449
313;1.1026191999999355;2450
314;1.106636200000139;2450
315;1.1105718999997407;2451
316;1.114630500000203;2451
317;1.1186186000004454;2451
318;1.1226041999998415;2452
319;1.126609599999938;2453
320;1.1306303999999727;2454
321;1.1346008000000438;2454
322;1.138628400000016;2455
323;1.1425892999995995;2456
324;1.1463752999998178;2456
325;1.1506365000004735;2457
326;1.1546158999999534;2457
327;1.1586267000002408;2458
328;1.1621820000000298;2459
329;1.165556199999628;2459
330;1.1694859999997789;2460
331;1.1736563000004026;2461
332;1.177606299999752;2461
333;1.180558099999871;2462
334;1.1846234000004188;2463
335;1.1885008999997808;2464
336;1.192613899999742;2464
337;1.1965452000004007;2465
338;1.2006217999996807;2466
339;1.2051871000003302;2466
340;1.2085823999996137;2466
341;1.212203199999749;2466
342;1.216625899999599;2467
343;1.2206379999997807;2467
344;1.2246261000000231;2468
345;1.2286616000001231;2468
346;1.232606399999895;2468
347;1.235565900000438;2468
348;1.2396449999996548;2468
349;1.2436189999998533;2469
350;1.2476112000003923;2469
351;1.251058699999703;2470
352;1.254621799999768;2470
353;1.258617399999821;2470
354;1.2622142999998687;2470
355;1.2651753000000099;2471
356;1.2682064999999056;2471
357;1.2722411000004286;2470
358;1.2754273000000467;2471
359;1.2791728000001967;2471
360;1.2824016000004121;2471
361;1.285327900000084;2471
362;1.2883912999996028;2471
363;1.2912728999999672;2471
364;1.2943677000002936;2472
365;1.2972630000003846;2472
366;1.3016146999998455;2472
367;1.305649099999755;2473
368;1.3096170999997412;2473
369;1.313128400000096;2473
370;1.316572300000189;2473
371;1.3206405000000814;2473
372;1.3246367000001555;2473
373;1.3286467999996603;2473
374;1.3326395000003686;2473
375;1.3366531000001487;2473
376;1.340643700000328;2474
377;1.3442642999998498;2474
378;1.347586400000182;2474
379;1.3516498999997566;2474
380;1.3556179999995948;2474
381;1.359651699999631;2474
382;1.362020499999744;2474
383;1.3656277999998565;2474
384;1.3696491000000606;2474
385;1.3736551000001782;2474
386;1.377616400000079;2474
387;1.3806063000001814;2473
388;1.3846449000002394;2474
389;1.3886898999999175;2474
390;1.3922331000003396;2474
391;1.3965369999996256;2474
392;1.4006451000004745;2474
393;1.4046457000004011;2474
394;1.408203500000127;2474
395;1.4111003999996683;2473
396;1.414252700000361;2472
397;1.417052099999637;2472
398;1.4205058999996254;2472
399;1.4241256000004796;2471
400;1.4275269999998272;2471
401;1.4304497000002812;2471
402;1.4334398999999394;2471
403;1.4375319000000673;2470
404;1.4411491000000751;2470
405;1.4444996000001993;2470
406;1.447473799999898;2470
407;1.4515268000004653;2469
408;1.4552058999997826;2469
409;1.4580544000000373;2469
410;1.4610647999998037;2468
411;1.4640682999997807;2468
412;1.4674569999997402;2468
413;1.470158299999639;2467
414;1.473539200000232;2467
415;1.4775546000000759;2467
416;1.4805372999999236;2466
417;1.4845925999998144;2466
418;1.4874409000003652;2466
419;1.4904022999999142;2466
420;1.4934317999995983;2466
421;1.49752079999962;2465
422;1.5004343000000517;2465
423;1.5031177999999272;2465
424;1.5060112999999546;2465
425;1.5094925000003059;2464
426;1.5121232999999847;2464
427;1.515201899999738;2464
428;1.5182817000004434;2463
429;1.5212307000001601;2463
430;1.5242220000000088;2463
431;1.5272125000001324;2463
432;1.5302241999997932;2462
433;1.5331263999996736;2462
434;1.536138999999821;2461
435;1.53912180000043;2461
436;1.5425459999996747;2460
437;1.54664159999993;2460
438;1.5506085999995776;2459
439;1.554639799999677;2458
440;1.5586280999996234;2457
441;1.5621947999998156;2457
442;1.5655626999996457;2456
443;1.5696379000000888;2455
444;1.5736526999999114;2455
445;1.577646800000366;2453
446;1.5805647999995927;2453
447;1.5846340999996755;2452
448;1.5886301000000458;2452
449;1.59264020000046;2451
450;1.5965646000004199;2450
451;1.600606400000288;2449
452;1.6045616000001246;2448
453;1.6086777000000438;2448
454;1.611569800000325;2447
455;1.6156649000004109;2446
456;1.6196409000003769;2445
457;1.6236589999998614;2444
458;1.6276115999999092;2443
459;1.6305983000002016;2443
460;1.634661199999755;2442
461;1.6386436000002504;2442
462;1.6425982999999178;2441
463;1.6452320999997028;2440
464;1.6485763000000588;2440
465;1.6526568999997835;2439
466;1.656673100000262;2438
467;1.6606449000000794;2437
468;1.663604999999734;2436
469;1.6676641000003656;2435
470;1.6716292999999496;2434
471;1.6756592000001547;2433
472;1.6792205000001559;2433
473;1.6826172999999471;2432
474;1.6866665999996258;2432
475;1.6900714000003063;2431
476;1.6929729000003135;2430
477;1.6950157999999647;2430
478;1.6979608000001463;2429
479;1.699883299999783;2429
480;1.702023800000461;2428
481;1.7053415999998833;2428
482;1.7083539000004748;2427
483;1.7113728000003903;2426
484;1.714217099999587;2426
485;1.7173460000003615;2425
486;1.7200345999999627;2425
487;1.7233641000002535;2424
488;1.7263591000000815;2424
489;1.729349799999909;2424
490;1.73234709999997;2423
491;1.7353343000004315;2422
492;1.7383523999997124;2422
493;1.7413478999997096;2421
494;1.7443587999996453;2420
495;1.7473354000003383;2419
496;1.75034179999966;2418
497;1.7530675999996674;2418
498;1.7563300000001618;2417
499;1.7593585000004168;2417
500;1.7620528999996168;2416
501;1.7653634999996939;2416
502;1.7683514000000287;2415
503;1.7713258000003407;2415
504;1.7743695999997726;2415
505;1.7773376000004646;2414
506;1.7803600999995979;2414
507;1.7832091999998738;2413
508;1.7863687999997637;2412
509;1.7893745999999737;2411
510;1.7923545000003287;2410
511;1.7951720000000932;2409
512;1.7983442000004288;2409
513;1.8012158999999883;2408
514;1.8041597999999794;2408
515;1.807252200000221;2407
516;1.8113860000003115;2407
517;1.8145339000002423;2406
518;1.8186029999997118;2405
519;1.8214733000004344;2405
520;1.8254625999998098;2404
521;1.8282034000003478;2403
522;1.8314649000003556;2402
523;1.8344537000002674;2401
524;1.8374016999996456;2401
525;1.840365699999893;2400
526;1.8433494999999311;2399
527;1.846209799999997;2398
528;1.8493520000001809;2398
529;1.8523629999999685;2397
530;1.8553498000001127;2396
531;1.8581608000004053;2396
532;1.8611504000000423;2396
533;1.8641464000002088;2395
534;1.86714529999972;2395
535;1.8701590999999098;2394
536;1.8731610000004366;2394
537;1.8763380999998844;2394
538;1.88072480000028;2393
539;1.884620800000448;2393
540;1.888443200000438;2392
541;1.8914907999997013;2392
542;1.894407300000239;2391
543;1.8973359000001437;2391
544;1.9003220000004148;2391
545;1.9033324000001812;2391
546;1.9063434999998208;2391
547;1.909328099999584;2391
548;1.9120301000002655;2391
549;1.9153323000000455;2391
550;1.9183592999997927;2390
551;1.9213294999999562;2390
552;1.9243532000000414;2390
553;1.9273581999996168;2389
554;1.9303909000000203;2389
555;1.9333855000004405;2389
556;1.9374727000003986;2389
557;1.9414747999999236;2389
558;1.9443328999996083;2388
559;1.9474890000001324;2388
560;1.9514673000003313;2387
561;1.9552843000001303;2388
562;1.9583850999997594;2387
563;1.9613634999996066;2387
564;1.9643629000001965;2387
565;1.967373299999963;2387
566;1.9701230999999098;2387
567;1.9733968999998979;2386
568;1.9763609000001452;2386
569;1.979372400000102;2386
570;1.9823687999996764;2386
571;1.9854021999999532;2386
572;1.9883732999996937;2385
573;1.991359900000134;2385
574;1.9952131000000008;2385
575;1.9983598999997412;2385
576;2.001339499999631;2385
577;2.0042193999997835;2385
578;2.0072283999998035;2385
579;2.0104559999999765;2385
580;2.0132321000000957;2385
581;2.017661400000179;2386
582;2.021520500000406;2386
583;2.025726599999871;2386
584;2.029290399999809;2386
585;2.032544300000154;2386
586;2.0364777000004324;2386
587;2.0405078000003414;2386
588;2.0444642000002204;2387
589;2.0487444000000323;2387
590;2.0527011000003768;2387
591;2.0567019999998593;2387
592;2.060750399999961;2388
593;2.0647343999999066;2388
594;2.0686906000000818;2389
595;2.0727318999997806;2389
596;2.0767493000003014;2390
597;2.0803360999998404;2390
598;2.0833021999997072;2390
599;2.0863171000000875;2390
600;2.089629199999763;2390
601;2.0935740000004444;2391
602;2.0976713999998537;2391
603;2.101650300000074;2391
604;2.105689699999857;2392
605;2.1094726999999693;2392
606;2.1136163999999553;2392
607;2.11764519999997;2393
608;2.1216574999998556;2393
609;2.1254540999998426;2394
610;2.1292953000001944;2394
611;2.133734199999708;2395
612;2.1377528000002712;2395
613;2.1413032000000385;2395
614;2.1446750000004613;2396
615;2.1487460999996983;2396
616;2.152694800000063;2397
617;2.156423800000084;2397
618;2.1607503000004726;2397
619;2.1647660999997242;2398
620;2.1687003999995795;2399
621;2.1724755000004734;2399
622;2.175268699999833;2399
623;2.179317699999956;2399
624;2.1826868999996805;2400
625;2.1867309999997815;2401
626;2.1902994000001854;2402
627;2.1936787000004188;2403
628;2.1977426000003106;2403
629;2.2018315000004804;2404
630;2.2052966999999626;2404
631;2.2086583000000246;2405
632;2.2124665000001187;2405
633;2.216849999999795;2406
634;2.220467400000416;2407
635;2.223626900000454;2407
636;2.2276480999998967;2408
637;2.2317058999997244;2409
638;2.2356001999996806;2410
639;2.2397110000001703;2410
640;2.2437374000001;2410
641;2.247739299999921;2411
642;2.251393300000018;2412
643;2.255719499999941;2412
644;2.2596786000003704;2413
645;2.263702100000046;2413
646;2.2672511999999188;2413
647;2.2717625000004773;2414
648;2.2756875000004584;2415
649;2.279278300000442;2416
650;2.2826562999998714;2417
651;2.2867658000004667;2418
652;2.290743100000327;2419
653;2.2946743000002243;2419
654;2.298348100000112;2420
655;2.301713699999709;2420
656;2.3057239999998274;2421
657;2.3097177999998166;2423
658;2.313526599999932;2424
659;2.316147600000477;2425
660;2.3196653000004517;2425
661;2.3237073999998756;2426
662;2.3277663999997458;2427
663;2.331677099999979;2429
664;2.3355122000002666;2429
665;2.338343800000075;2430
666;2.3413103000002593;2431
667;2.3442855000002965;2432
668;2.3473574999998164;2432
669;2.3502988999998706;2433
670;2.35330040000008;2434
671;2.3563021999998455;2434
672;2.3593225000004168;2435
673;2.3623285000003307;2435
674;2.365324899999905;2436
675;2.3684970000003887;2437
676;2.3714662000002136;2437
677;2.3744644999997035;2438
678;2.377471400000104;2439
679;2.3803342999999586;2439
680;2.3834932999998273;2440
681;2.387490799999796;2440
682;2.390459500000361;2441
683;2.3934951000001092;2442
684;2.396493399999599;2442
685;2.3995114999997895;2442
686;2.4034975000004124;2442
687;2.4064877000000706;2443
688;2.4094111000003977;2444
689;2.4135048999996798;2445
690;2.417500200000177;2445
691;2.421511200000168;2446
692;2.4255567000000156;2447
693;2.429360400000405;2448
694;2.4324986999999965;2448
695;2.435492200000226;2449
696;2.439479499999834;2450
697;2.4425069999997504;2451
698;2.4452509000002465;2451
699;2.4484926000004634;2452
700;2.4525068000002648;2452
701;2.456384899999648;2453
702;2.459294399999635;2454
703;2.4622112999995807;2454
704;2.465347700000166;2455
705;2.4685011000001396;2455
706;2.471505800000159;2456
707;2.4744904999997743;2457
708;2.4782556999998633;2457
709;2.4815071000002717;2457
710;2.485496399999647;2458
711;2.488117599999896;2459
712;2.4912686999996367;2460
713;2.4943052999997235;2460
714;2.497423300000264;2460
715;2.5003333000004204;2461
716;2.5045117999998183;2462
717;2.508457599999929;2462
718;2.5122824999998556;2462
