;time;amplitude
0;0.0033659000000625383;2417
1;0.006376999999702093;2417
2;0.009474899999986519;2417
3;0.012366099999781;2417
4;0.01539370000045892;2417
5;0.01829379999981029;2418
6;0.0218380000005709;2418
7;0.02627940000002127;2419
8;0.03101260000039474;2419
9;0.034985400000550726;2419
10;0.03886950000014622;2420
11;0.042677000000367116;2420
12;0.0469109000005119;2420
13;0.05089219999990746;2420
14;0.0548943000003419;2421
15;0.05894989999978861;2421
16;0.06283720000010362;2421
17;0.06687700000020413;2421
18;0.07088430000021617;2421
19;0.07497220000004745;2421
20;0.0787227000000712;2422
21;0.08287449999988894;2422
22;0.08686260000013135;2422
23;0.09088859999974375;2422
24;0.09451160000025993;2422
25;0.09745699999984936;2422
26;0.10060100000009697;2422
27;0.10484290000022156;2422
28;0.10746290000042791;2423
29;0.11045670000021346;2422
30;0.11351360000026034;2423
31;0.11651669999992009;2423
32;0.11951680000038323;2423
33;0.12257659999977477;2424
34;0.12558770000032382;2423
35;0.12851010000031238;2424
36;0.13154279999980645;2423
37;0.13453500000014174;2424
38;0.13754419999986567;2424
39;0.14053969999986293;2424
40;0.14355560000058176;2424
41;0.14646300000003976;2425
42;0.1493986000004952;2425
43;0.15246320000005653;2425
44;0.1555175000003146;2425
45;0.15842780000002676;2426
46;0.16153230000054464;2426
47;0.16454780000003666;2426
48;0.16751320000003034;2426
49;0.1705037000001539;2427
50;0.17350950000036391;2427
51;0.17614560000038182;2427
52;0.17826680000052875;2428
53;0.18128169999999955;2428
54;0.18431080000027578;2428
55;0.18794640000032814;2428
56;0.19256210000003193;2429
57;0.19573810000019876;2429
58;0.19983349999984057;2429
59;0.2038012000002709;2429
60;0.20721419999972568;2430
61;0.21028130000013334;2430
62;0.2132753000005323;2430
63;0.21658780000052502;2430
64;0.21958050000012008;2430
65;0.22263079999993352;2431
66;0.22630600000047707;2431
67;0.2296455000005153;2431
68;0.23258499999974447;2431
69;0.23559819999991305;2431
70;0.2385839999997188;2432
71;0.241618600000038;2432
72;0.2443966000000728;2432
73;0.24761760000001232;2432
74;0.2505972999997539;2432
75;0.2536253999996916;2432
76;0.25662689999990107;2432
77;0.2593477999998868;2432
78;0.26253540000016073;2432
79;0.2654148999999961;2432
80;0.26854329999969195;2432
81;0.2715471000001344;2432
82;0.2745420999999624;2433
83;0.27725869999994757;2432
84;0.28096590000041033;2432
85;0.2849344000005658;2433
86;0.28890990000036254;2433
87;0.2927061999998841;2433
88;0.29680850000022474;2433
89;0.3008128999999826;2432
90;0.30480700000043726;2432
91;0.308327100000497;2433
92;0.31149180000011256;2433
93;0.31449049999991985;2433
94;0.317497000000003;2433
95;0.32052910000038537;2434
96;0.3232335000002422;2434
97;0.3251965999997992;2434
98;0.3282476000003953;2434
99;0.33151619999989634;2434
100;0.3345176000002539;2434
101;0.3374948000000586;2434
102;0.3405475999998089;2434
103;0.3435294000000795;2434
104;0.34654460000001563;2434
105;0.3495135000002847;2435
106;0.35252159999981814;2435
107;0.355547199999819;2434
108;0.35853120000047056;2435
109;0.3615226000001712;2435
110;0.3645120000001043;2435
111;0.36753070000031585;2435
112;0.3705187000005026;2435
113;0.3735071000000971;2435
114;0.3762209000005896;2435
115;0.3795107000005373;2435
116;0.3825201999998171;2434
117;0.385511100000258;2435
118;0.3885116999999809;2434
119;0.3915047999998933;2434
120;0.3945180000000619;2434
121;0.39750370000001567;2434
122;0.4001546999998027;2434
123;0.4035165000004781;2434
124;0.4062965000002805;2434
125;0.40918210000018007;2434
126;0.4125021999998353;2434
127;0.4154423999998471;2435
128;0.4185096999999587;2435
129;0.4214796000005663;2435
130;0.42447809999976016;2435
131;0.4275072000000364;2435
132;0.43049690000043483;2435
133;0.4332921000004717;2435
134;0.4362554999997883;2435
135;0.4392470000002504;2435
136;0.44255169999996724;2435
137;0.44573639999998704;2435
138;0.44971760000044014;2435
139;0.4536985000004279;2435
140;0.45781910000005155;2435
141;0.4605490000003556;2435
142;0.4645971999998437;2436
143;0.4688274000000092;2435
144;0.4727950000005876;2435
145;0.47638259999985166;2435
146;0.47975659999974596;2435
147;0.4837883000000147;2434
148;0.48779970000032336;2434
149;0.49181620000035764;2434
150;0.49442369999997027;2434
151;0.49880490000032296;2434
152;0.502801300000101;2434
153;0.5068025000000489;2434
154;0.5107569000001604;2434
155;0.5148150000004534;2435
156;0.5188256999999794;2435
157;0.522823100000096;2435
158;0.5262656000004426;2435
159;0.5297869000005448;2435
160;0.5338142000000516;2435
161;0.5378042000002097;2435
162;0.5414657000001171;2436
163;0.5447699000005741;2435
164;0.5487757000000784;2435
165;0.5528212999997777;2435
166;0.5568073000004006;2436
167;0.5607614000000467;2436
168;0.5648185999998532;2436
169;0.5688325000000987;2436
170;0.5725965000001452;2436
171;0.5763558999997258;2435
172;0.5797957000004317;2435
173;0.5838282000004256;2436
174;0.5878176000005624;2435
175;0.5917694999998275;2435
176;0.5947641000002477;2435
177;0.5987691000000268;2435
178;0.6028341000001092;2435
179;0.6068719000004421;2435
180;0.6107651000002079;2435
181;0.6148180999998658;2435
182;0.6188042000003406;2436
183;0.6217351000004783;2436
184;0.6258671000005052;2436
185;0.6298046000001705;2436
186;0.6338152999996964;2436
187;0.6377412000001641;2436
188;0.6417803000003914;2435
189;0.6447201999999379;2436
190;0.6477130000002944;2436
191;0.6507143999997425;2436
192;0.6537280000002283;2436
193;0.6578472000001057;2435
194;0.6602944000005664;2436
195;0.6632658999997147;2436
196;0.6662836000004972;2436
197;0.6697627000003195;2436
198;0.6738107000001037;2436
199;0.6773180999998658;2436
200;0.6807838000004267;2436
201;0.6848110000000815;2435
202;0.6888021000004301;2436
203;0.6925121000003855;2435
204;0.6957265000000916;2435
205;0.6995901000000231;2435
206;0.7025979999998526;2435
207;0.7055569000003743;2435
208;0.7085521999997582;2435
209;0.7115549000000101;2435
210;0.7145669000001362;2435
211;0.7174068000003899;2434
212;0.7203188000003138;2435
213;0.7232050000002346;2435
214;0.7252291000004334;2435
215;0.7288514000001669;2434
216;0.7327241000002687;2434
217;0.7367267999998148;2434
218;0.7393079000003127;2434
219;0.7424639999999272;2434
220;0.7455680000002758;2434
221;0.7493903000004138;2434
222;0.7524147000003722;2434
223;0.7554824999997436;2434
224;0.758372700000109;2434
225;0.7612275999999838;2435
226;0.7642132999999376;2435
227;0.7662087999997311;2435
228;0.7694149999997535;2435
229;0.7724134000000049;2435
230;0.7750934000005145;2435
231;0.7782853999997315;2435
232;0.7813833000000159;2435
233;0.7844729999997071;2435
234;0.7876705999997284;2435
235;0.790162600000258;2435
236;0.7932912000005672;2435
237;0.7962784000001193;2435
238;0.799332499999764;2435
239;0.8022282000001724;2435
240;0.805373299999701;2436
241;0.8085677999997642;2436
242;0.8112995999999839;2436
243;0.8147006999997757;2436
244;0.8177783000001;2436
245;0.8206467999998495;2436
246;0.8232737999996971;2436
247;0.8262590000003911;2436
248;0.8291580000004615;2436
249;0.831528900000194;2436
250;0.834267600000203;2435
251;0.8375162000002092;2436
252;0.8403423999998267;2435
253;0.8432315999998536;2435
254;0.8463274000005185;2435
255;0.8494774000000689;2435
256;0.8523682000004555;2435
257;0.855347100000472;2436
258;0.8570869000004677;2436
259;0.8602617000005921;2436
260;0.8631425000003219;2435
261;0.8653517000002466;2435
262;0.8672299999998359;2435
263;0.869269599999825;2435
264;0.8710972999997466;2435
265;0.8730787000004057;2435
266;0.8751025000001391;2435
267;0.8782565000001341;2435
268;0.8801865000004909;2435
269;0.8823001000000659;2435
270;0.885195300000305;2435
271;0.887177900000097;2435
272;0.889196300000549;2435
273;0.8910909000005631;2434
274;0.8934455999997226;2434
275;0.8962307000001601;2434
276;0.8980798000002324;2434
277;0.9000787000004493;2434
278;0.9022310000000289;2434
279;0.9052385000004506;2434
280;0.9071319000004223;2434
281;0.9091502999999648;2434
282;0.91110209999988;2434
283;0.913209100000131;2434
284;0.9152071999997133;2434
285;0.917225199999848;2434
286;0.9192424000002575;2434
287;0.9211449000003995;2434
288;0.9241256000004796;2434
289;0.9260307000004104;2434
290;0.9281471000003876;2434
291;0.9301431000003504;2434
292;0.932166600000528;2434
293;0.9340595000003304;2434
294;0.9362013999998453;2434
295;0.9380485000001499;2434
296;0.9402460999999676;2435
297;0.9421049000002313;2435
298;0.9442938000001959;2435
299;0.9461700000001656;2435
300;0.9481550999998944;2435
301;0.9513367999998081;2436
302;0.9540795000002618;2436
303;0.9563852000001134;2435
304;0.9592063999998572;2436
305;0.9622507000003679;2436
306;0.9656372999997984;2436
307;0.9683113000000958;2436
308;0.9713759000005666;2436
309;0.9731784000005064;2436
310;0.9761823999997432;2436
311;0.9780950000003941;2436
312;0.9800738000003548;2436
313;0.9820786000000226;2437
314;0.9840345000002344;2437
315;0.9861161999997421;2437
316;0.9882594000000609;2436
317;0.9912553000003754;2436
318;0.9931247000004078;2436
319;0.9952371999997922;2436
320;0.9972391000001153;2436
321;0.9990568000002895;2436
322;1.0013623000004372;2436
323;1.0042789999997694;2436
324;1.0071834999998828;2436
325;1.0101997000001575;2436
326;1.0122595000002548;2436
327;1.0153853000001618;2436
328;1.01838620000035;2436
329;1.0213685999997324;2436
330;1.0242329000002428;2435
331;1.0271923000000243;2435
332;1.029349500000535;2435
333;1.0322154000004957;2435
334;1.034099000000424;2435
335;1.0361337000003914;2435
336;1.038240400000177;2435
337;1.0401436000001922;2435
338;1.0432456999997157;2435
339;1.0455387000001792;2435
340;1.0483728999997766;2435
341;1.0512322000004133;2435
342;1.0533236999999644;2435
343;1.0565107000002172;2434
344;1.059234500000457;2435
345;1.0622066000005361;2435
346;1.0652038999996876;2436
347;1.0682231000000684;2435
348;1.0713637999997445;2436
349;1.0744855000002644;2436
350;1.0774914000003264;2436
351;1.0804877000000488;2436
352;1.0835001000004922;2435
353;1.0864917999997488;2436
354;1.0894801000004009;2435
355;1.0934908999997788;2435
356;1.096502899999905;2435
357;1.0995015999997122;2435
358;1.1025102000003244;2435
359;1.1055026000003636;2436
360;1.1085023000005094;2435
361;1.1114981000000625;2435
362;1.1145057000003362;2436
363;1.1175239000003785;2435
364;1.1205061999999089;2435
365;1.123510399999759;2436
366;1.1265113999997993;2435
367;1.1294998000003034;2436
368;1.1324982000005548;2436
369;1.1355032999999821;2435
370;1.138136300000042;2435
371;1.140508000000409;2435
372;1.1433546999996906;2435
373;1.1465192000005118;2434
374;1.149460600000566;2435
375;1.1524835000000166;2435
376;1.1554709000001822;2435
377;1.1581733000002714;2435
378;1.1605205000005299;2436
379;1.1634478000005402;2436
380;1.1665892999999414;2436
381;1.169428600000174;2436
382;1.1725980000001073;2436
383;1.175601099999767;2436
384;1.178436099999999;2436
385;1.1816033000004609;2437
386;1.1845717000005607;2437
387;1.187601600000562;2436
388;1.190514500000063;2437
389;1.1936095999999452;2437
390;1.1965940000000046;2437
391;1.199572800000169;2437
392;1.2025665000001027;2437
393;1.2055953999997655;2437
394;1.208286600000065;2437
395;1.2112973000002967;2437
396;1.2142030000004524;2437
397;1.217743100000007;2438
398;1.2206906999999774;2438
399;1.2237677000002805;2438
400;1.2274575000001278;2437
401;1.2307023000003028;2438
402;1.2337235000004512;2437
403;1.2373757000004844;2437
404;1.2407515000004423;2437
405;1.244812599999932;2438
406;1.2487802000005104;2438
407;1.2527638000001389;2437
408;1.256775099999686;2437
409;1.2607802000002266;2437
410;1.264803199999733;2437
411;1.268645099999958;2438
412;1.2712406000000556;2438
413;1.2746691000002102;2438
414;1.2776792000004207;2439
415;1.2806706999999733;2439
416;1.2837546999999176;2439
417;1.286482000000433;2439
418;1.2894395000002987;2439
419;1.2920689000002312;2439
420;1.2943512000001647;2439
421;1.297352900000078;2439
422;1.3003539999999703;2439
423;1.303401699999995;2439
424;1.3064125999999305;2439
425;1.309218399999736;2439
426;1.311171800000011;2439
427;1.3131727999998475;2440
428;1.315327199999956;2440
429;1.3184977999999319;2440
430;1.3214736999998422;2439
431;1.3245028999999704;2440
432;1.327271600000131;2440
433;1.3305028000004313;2440
434;1.3334703000000445;2440
435;1.336500800000067;2440
436;1.3395015000005515;2440
437;1.3421607999998741;2440
438;1.3455275000005713;2440
439;1.3484865999998874;2440
440;1.3514873000003718;2440
441;1.3544856999997137;2440
442;1.3574727000004714;2440
443;1.360254299999724;2440
444;1.362212300000465;2440
445;1.3642024000000674;2440
446;1.3661856999997326;2440
447;1.3682004000002053;2440
448;1.3701937000005273;2440
449;1.372193199999856;2440
450;1.3742086000002018;2441
451;1.3761937999997826;2441
452;1.378270799999882;2441
453;1.3814259000000675;2441
454;1.3844442999998137;2441
455;1.387308800000028;2441
456;1.3905242999999246;2441
457;1.3932083999998213;2441
458;1.396495799999684;2441
459;1.3994746999997005;2441
460;1.402461100000437;2441
461;1.4055318000000625;2441
462;1.4080850000000282;2441
463;1.4103543999999602;2441
464;1.4134122000004936;2441
465;1.4164947999997821;2441
466;1.419499999999971;2441
467;1.4225274000000354;2441
468;1.4250650000003589;2441
469;1.4282472000004418;2441
470;1.431200500000159;2441
471;1.4333286999999473;2442
472;1.4367833000005703;2442
473;1.4405805000005785;2442
474;1.4444241999999576;2442
475;1.4477054999997563;2442
476;1.4515505999997913;2441
477;1.4545767999998134;2442
478;1.4575430000004417;2442
479;1.4602058999998917;2442
480;1.4622017000001506;2441
481;1.4642767000004824;2442
482;1.4661742999996932;2442
483;1.4681730000002062;2442
484;1.470487200000207;2442
485;1.4733550000000832;2442
486;1.4761515000000145;2443
487;1.479421099999854;2443
488;1.4823560000004363;2443
489;1.4855089000002408;2443
490;1.4884125999997195;2444
491;1.4914794000005713;2444
492;1.4943978000001152;2444
493;1.4974081999998816;2444
494;1.500389599999835;2444
495;1.503500200000417;2444
496;1.5063354000003528;2444
497;1.5092218999998295;2445
498;1.5123082000000068;2445
499;1.5142811000005167;2445
500;1.5161637000001065;2445
501;1.518269400000463;2446
502;1.5213423000004695;2446
503;1.5241326000004847;2446
504;1.5271334999997634;2446
505;1.5295522000005803;2446
506;1.5339839999996912;2446
507;1.5379658000001655;2447
508;1.5423719000000347;2447
509;1.545228599999973;2448
510;1.5472912000004726;2448
511;1.5507120000002033;2448
512;1.5547505000004094;2448
513;1.558899499999825;2449
514;1.561328400000093;2448
515;1.5644438999997874;2449
516;1.5675866000001406;2449
517;1.570426299999781;2449
518;1.5735638000005565;2450
519;1.5764513000003717;2450
520;1.5791748999999982;2450
521;1.5811841000004279;2450
522;1.583309000000554;2450
523;1.5861143000001903;2450
524;1.5893431000004057;2450
525;1.592069100000117;2450
526;1.5942832000000635;2450
527;1.597304200000508;2451
528;1.600402000000031;2451
529;1.6033186000004207;2451
530;1.6062122000003;2451
531;1.6091525000001639;2451
532;1.6122033000001466;2451
533;1.6144866000004185;2451
534;1.617392099999961;2451
535;1.6201514000003954;2451
536;1.6233833000005689;2451
537;1.62626309999996;2451
538;1.6294201999999132;2451
539;1.6323524999997971;2452
540;1.6355365999997957;2452
541;1.638437800000247;2452
542;1.641261900000245;2452
543;1.6452687000000878;2452
544;1.6482393000005686;2452
545;1.6502388999997493;2453
546;1.6523715000002994;2453
547;1.6554427000000942;2453
548;1.6582995999997365;2453
549;1.6611554000000979;2454
550;1.6643163999997341;2454
551;1.6672343000000183;2454
552;1.669360400000187;2454
553;1.6710718000003908;2454
554;1.67314609999994;2454
555;1.6752262999998493;2454
556;1.6771743999997852;2455
557;1.6792600999997376;2455
558;1.6821067999999286;2455
559;1.6842598000002909;2455
560;1.6862044999998034;2455
561;1.688148100000035;2455
562;1.6904512999999497;2455
563;1.6932686000000103;2455
564;1.6951686000002155;2455
565;1.698290100000122;2455
566;1.701091699999779;2455
567;1.7032064000004539;2455
568;1.7052193999998053;2455
569;1.7071931999998924;2456
570;1.7091333999997005;2456
571;1.7115052999997715;2456
572;1.7147678000001179;2456
573;1.7173069000000396;2456
574;1.7203706999998758;2456
575;1.7232812000002014;2456
576;1.726229500000045;2456
577;1.7291603000003306;2456
578;1.732372700000269;2457
579;1.735413399999743;2457
580;1.7371942999998282;2457
581;1.7406212000005326;2457
582;1.7443051999998715;2457
583;1.747357799999918;2458
584;1.7503198000003977;2457
585;1.7531673000003138;2458
586;1.7551685999997062;2458
587;1.7572165000001405;2458
588;1.7602974999999788;2458
589;1.7625157000002218;2459
590;1.7653822000002037;2459
591;1.768349500000113;2459
592;1.7714003999999477;2459
593;1.7743319999999585;2460
594;1.776065600000038;2460
595;1.77812189999986;2460
596;1.7803835000004256;2460
597;1.783127599999716;2460
598;1.7853100000002087;2461
599;1.787481299999854;2461
600;1.7901922000000923;2461
601;1.793197400000281;2461
602;1.7965575999996872;2461
603;1.7993599000001268;2461
604;1.802372699999978;2461
605;1.8053488000005018;2461
606;1.8083238999997775;2461
607;1.8111325999998371;2462
608;1.8143651000000318;2462
609;1.8172489999997197;2462
610;1.8191937000001417;2462
611;1.8212411000004067;2463
612;1.823193799999899;2463
613;1.8250453000000562;2463
614;1.8271950999996989;2463
615;1.829189199999746;2463
616;1.8311013000002276;2464
617;1.8332439000005252;2464
618;1.8351754000004803;2464
619;1.8373645000001488;2464
620;1.8392057000000932;2465
621;1.842247800000223;2465
622;1.8447097999996913;2465
623;1.847486900000149;2465
624;1.8504399000003104;2465
625;1.8532671000002665;2465
626;1.8562228999999206;2465
627;1.8594075999999404;2466
628;1.8622470000000249;2466
629;1.8642832000005;2466
630;1.8674096000004283;2467
631;1.8705679000004238;2467
632;1.8735016999999061;2467
633;1.8764479000001302;2468
634;1.8790909999997893;2468
635;1.88234840000041;2468
636;1.8853863000003912;2468
637;1.888116600000103;2468
638;1.8902085999998235;2469
639;1.8920847999997932;2468
640;1.8941340000001219;2469
641;1.89633270000013;2469
642;1.899128799999744;2469
643;1.9015012999998362;2469
644;1.9043622999997751;2469
645;1.907213700000284;2469
646;1.910217300000113;2469
647;1.9121893000001364;2469
648;1.9141748000001826;2469
649;1.9161495999996987;2469
650;1.9192600000005768;2469
651;1.9214591999998447;2469
652;1.9233150999998543;2470
653;1.9261422999998103;2470
654;1.9283793000004152;2470
655;1.9310900999998921;2470
656;1.9342278000003716;2470
657;1.9373542000003;2471
658;1.9401831000004677;2471
659;1.9436464999998861;2471
660;1.9465369999998074;2471
661;1.9493764999997438;2471
662;1.952381900000546;2471
663;1.9554165999998077;2472
664;1.9584437000003163;2472
665;1.9610849000000599;2472
666;1.9632151000005251;2472
667;1.965271400000347;2473
668;1.9680864000001748;2473
669;1.9701562000000195;2473
670;1.9722711000003983;2473
671;1.9751963999997315;2473
672;1.978202400000555;2473
673;1.9803540000002613;2474
674;1.9821529000000737;2474
675;1.9841794000003574;2474
676;1.9862044000001333;2474
677;1.9892805999998018;2474
678;1.9925247999999556;2474
679;1.9955159000001004;2475
680;1.9987019999998665;2475
681;2.001331299999947;2475
682;2.0044606000001295;2475
683;2.0076740000004065;2475
684;2.011342499999955;2475
685;2.0148755000000165;2475
686;2.0177419000001464;2475
687;2.020642399999815;2476
688;2.0233727000004365;2476
689;2.026475399999981;2476
690;2.029142999999749;2476
691;2.0323656999999002;2476
692;2.035242400000243;2476
693;2.037471800000276;2476
694;2.0403980999999476;2476
695;2.043736600000557;2476
696;2.046653999999762;2477
697;2.0496858000005886;2477
698;2.0526436000000103;2477
699;2.056817499999852;2477
700;2.0606024999997317;2477
701;2.0632379999997283;2477
702;2.066667199999756;2477
703;2.069695899999715;2477
704;2.0727404999997816;2477
705;2.07516140000007;2477
706;2.0782825000005687;2478
707;2.081270499999846;2478
708;2.0842552000003707;2478
709;2.0862974000001486;2478
710;2.0898317999999563;2479
711;2.0934101000002556;2479
712;2.096662699999797;2479
713;2.0997299000000567;2479
714;2.102727800000139;2479
715;2.105741399999715;2480
716;2.1082445000001826;2480
717;2.1102120000005016;2480
718;2.11360169999989;2480
