;time;amplitude
0;0.0030624999999417923;2392
1;0.007559900000160269;2392
2;0.01121800000055373;2392
3;0.015242299999954412;2392
4;0.018139000000701344;2392
5;0.02111880000029487;2391
6;0.024561900000662718;2391
7;0.028383700000631507;2391
8;0.03243410000050062;2391
9;0.03512230000069394;2391
10;0.037983400000484835;2391
11;0.04140240000015183;2391
12;0.04539290000047913;2391
13;0.049485399999866786;2391
14;0.05208720000064204;2391
15;0.05504999999993743;2391
16;0.0582447000006141;2391
17;0.061349300000074436;2391
18;0.06533459999991464;2391
19;0.06813360000069224;2391
20;0.071071800000027;2391
21;0.0754547000005914;2391
22;0.07940510000025824;2391
23;0.08312470000055328;2391
24;0.08610330000010435;2391
25;0.08934150000004593;2391
26;0.09252500000002328;2391
27;0.09639760000027309;2392
28;0.10010950000014418;2391
29;0.10307569999986299;2391
30;0.10607830000026297;2391
31;0.10929240000041318;2391
32;0.11219789999995555;2391
33;0.11525560000063706;2391
34;0.1181802000000971;2391
35;0.1211739000000307;2391
36;0.12491200000022218;2392
37;0.1280680999998367;2392
38;0.13106630000038422;2391
39;0.13379600000007486;2391
40;0.13690130000031786;2391
41;0.13907389999985753;2391
42;0.14209140000002662;2391
43;0.14500610000050074;2390
44;0.14824630000020989;2390
45;0.15088340000056633;2391
46;0.15389430000050197;2391
47;0.15576430000055552;2391
48;0.15799950000018725;2390
49;0.1612542000002577;2390
50;0.16422310000052676;2391
51;0.16794370000025083;2390
52;0.16985920000024635;2390
53;0.1728291999997964;2390
54;0.17630110000027344;2390
55;0.1792132999999012;2390
56;0.1821988000001511;2390
57;0.18487950000053388;2391
58;0.18683440000040719;2391
59;0.19023640000068553;2390
60;0.1932347000001755;2390
61;0.1970339999998032;2390
62;0.1999974000000293;2390
63;0.2028786000000764;2390
64;0.20501830000011978;2390
65;0.2080444000002899;2390
66;0.21124180000060733;2390
67;0.21425670000007813;2390
68;0.2168431000000055;2390
69;0.21986120000019582;2390
70;0.22328710000056162;2390
71;0.22620460000052844;2390
72;0.23027060000003985;2389
73;0.23302890000013576;2389
74;0.23590109999986453;2389
75;0.23896590000003926;2389
76;0.24198580000029324;2389
77;0.2450094000005265;2390
78;0.24792919999981677;2389
79;0.25091260000044713;2389
80;0.2528701999999612;2389
81;0.25580450000052224;2389
82;0.25912789999983943;2389
83;0.2620903000006365;2389
84;0.2650892000001477;2389
85;0.26791640000010375;2389
86;0.270852499999819;2389
87;0.2741092000005665;2389
88;0.27729830000043876;2389
89;0.2803254000000379;2389
90;0.28298700000050303;2389
91;0.285865200000444;2389
92;0.28787819999979547;2389
93;0.29008239999984653;2389
94;0.29297480000059295;2389
95;0.29597780000040075;2389
96;0.29908330000034766;2389
97;0.30089680000037333;2389
98;0.30391940000026807;2389
99;0.3073819999999614;2390
100;0.31014110000069195;2389
101;0.31308630000057747;2389
102;0.316137499999968;2389
103;0.318902099999832;2389
104;0.3209022000000914;2389
105;0.32399290000012115;2389
106;0.32707490000029793;2389
107;0.3299655000000712;2388
108;0.3329235000001063;2388
109;0.3359762000000046;2388
110;0.33919820000028267;2388
111;0.34219170000051236;2388
112;0.3450748000004751;2388
113;0.34810430000015913;2388
114;0.3509070000000065;2388
115;0.35280039999997825;2388
116;0.3551511000005121;2388
117;0.35832879999998113;2387
118;0.36122789999990346;2387
119;0.3642440000003262;2387
120;0.36693689999992785;2388
121;0.369811500000651;2388
122;0.37294240000028367;2388
123;0.3760379000004832;2387
124;0.379032200000438;2387
125;0.38197440000021743;2387
126;0.38396130000000994;2387
127;0.3868627000001652;2387
128;0.3899129000001267;2387
129;0.3930018999999447;2386
130;0.3959469999999783;2386
131;0.3989441000003353;2386
132;0.4019082000004346;2386
133;0.40381840000009106;2386
134;0.40709680000054504;2386
135;0.4102723000005426;2386
136;0.41321160000006785;2386
137;0.4163101000003735;2386
138;0.4188670000003185;2386
139;0.42076619999988907;2386
140;0.42271440000058647;2386
141;0.4263154999998733;2385
142;0.4292605000000549;2386
143;0.43205870000019786;2386
144;0.43490990000009333;2386
145;0.43700040000021545;2385
146;0.43999780000012834;2385
147;0.4429343000001609;2385
148;0.44594210000013845;2385
149;0.4490332000004855;2385
150;0.4518293999999514;2385
151;0.4550331999998889;2385
152;0.45804339999995136;2385
153;0.46118509999996604;2385
154;0.46389710000039486;2385
155;0.46696800000063377;2385
156;0.4698484999998982;2384
157;0.473285200000646;2384
158;0.4762620000001334;2385
159;0.47916840000016236;2384
160;0.4821135000001959;2384
161;0.48487180000029184;2384
162;0.48676660000000993;2384
163;0.4901177000001553;2384
164;0.493102600000384;2384
165;0.4962369000004401;2384
166;0.49928670000008424;2384
167;0.5018669999999474;2384
168;0.5038904000002731;2384
169;0.5068492000000333;2384
170;0.5088399000005666;2384
171;0.5112075000006371;2383
172;0.5142038000003595;2384
173;0.5168946000003416;2384
174;0.5188635000004069;2383
175;0.5207537000005686;2383
176;0.5243104999999559;2383
177;0.5272248999999647;2383
178;0.5303368000004411;2383
179;0.5329269000003478;2383
180;0.5358835000006366;2383
181;0.538851500000419;2383
182;0.5417268000001059;2383
183;0.5438998999998148;2383
184;0.5467626999998174;2383
185;0.5500144000006912;2382
186;0.5529019000005064;2382
187;0.5548175000003539;2382
188;0.5578841000005923;2382
189;0.5611108000002787;2383
190;0.5642587000002095;2382
191;0.5668605000000753;2383
192;0.568846900000608;2382
193;0.5711173999998209;2382
194;0.574259200000597;2382
195;0.5772530000003826;2382
196;0.5801307000001543;2382
197;0.5828910000000178;2382
198;0.5858300999998391;2381
199;0.5879969000006895;2381
200;0.5909957000003487;2381
201;0.5940110000001368;2381
202;0.5971391000002768;2381
203;0.5997559000006731;2381
204;0.6018824000002496;2381
205;0.6038155000005645;2381
206;0.6072348000006969;2381
207;0.6102012000001196;2381
208;0.6132388000005449;2381
209;0.6163248000002568;2381
210;0.6188209000001734;2381
211;0.6208187000001999;2381
212;0.6242046000006667;2381
213;0.6272202000000107;2381
214;0.63135340000008;2381
215;0.6339201999999204;2381
216;0.636878400000569;2381
217;0.6391383999998652;2381
218;0.6420530000004874;2381
219;0.6453328000006877;2381
220;0.6483893000004173;2381
221;0.6509388000004037;2381
222;0.6540130000003046;2381
223;0.6571617999998125;2381
224;0.6601062999998248;2381
225;0.6630356000005122;2381
226;0.6661482999998043;2380
227;0.6698998000001666;2380
228;0.672027600000547;2380
229;0.6753196999998181;2380
230;0.6783481000002212;2380
231;0.6813428000004933;2380
232;0.68492040000001;2380
233;0.6868309000001318;2380
234;0.6901506000003792;2379
235;0.6932396000001972;2379
236;0.6972931999998764;2379
237;0.6999181999999564;2379
238;0.7018506000003981;2379
239;0.7038677999998981;2379
240;0.7072640000005777;2378
241;0.7101990999999543;2378
242;0.7142518000000564;2378
243;0.7170026000003418;2378
244;0.7198543000004065;2378
245;0.7218157000006613;2377
246;0.7239439000004495;2377
247;0.7270417999998244;2377
248;0.7300448000005417;2377
249;0.7329503000000841;2377
250;0.7358380000005127;2377
251;0.7378459000001385;2378
252;0.7409250999999131;2378
253;0.7440053999998781;2378
254;0.746954199999891;2378
255;0.7498037000004842;2378
256;0.7518353000004936;2378
257;0.7537595000003421;2377
258;0.7568803000003754;2377
259;0.7599672000005739;2378
260;0.7628647999999885;2378
261;0.7649780000001556;2377
262;0.7667105999998967;2377
263;0.7689392000002044;2377
264;0.770983200000046;2377
265;0.7740766000006261;2377
266;0.7768290000003617;2377
267;0.7798284999998941;2377
268;0.7829216000000088;2377
269;0.7859263000000283;2377
270;0.7878888000004736;2377
271;0.7911333000001832;2377
272;0.7940052000003561;2377
273;0.7970083999998678;2377
274;0.7998014000004332;2377
275;0.8018384000006336;2377
276;0.8039236000004166;2377
277;0.8070059000001493;2377
278;0.809991699999955;2377
279;0.813023499999872;2376
280;0.8159703999999692;2376
281;0.818836100000226;2377
282;0.8210528999998132;2377
283;0.8239060000005338;2377
284;0.8269887000005838;2377
285;0.830266599999959;2377
286;0.8328453000003719;2377
287;0.8359180000006745;2377
288;0.8389677000004667;2377
289;0.8422344000000521;2377
290;0.8453834000001734;2377
291;0.8483845999999176;2377
292;0.8509057000001121;2377
293;0.8528418000005331;2378
294;0.8551598000003651;2378
295;0.8581978000001982;2377
296;0.8613896000006207;2377
297;0.8642553999998199;2377
298;0.8668532000001505;2377
299;0.8688919000005626;2377
300;0.8709029000001465;2376
301;0.874149799999941;2376
302;0.8771679000001313;2376
303;0.8801225000006525;2377
304;0.8827337000002444;2377
305;0.8848955000003116;2376
306;0.8879191000005449;2376
307;0.8912823000000571;2376
308;0.8942366999999649;2376
309;0.8971516000001429;2376
310;0.8998227000001862;2376
311;0.9018919000000096;2377
312;0.9039301000002524;2376
313;0.9072980999999345;2376
314;0.9103327000002537;2376
315;0.9142193000006955;2376
316;0.9169611000006626;2376
317;0.9197776000000886;2376
318;0.9231380000001081;2376
319;0.9261061000006521;2376
320;0.9290969000003315;2375
321;0.93218380000053;2376
322;0.9349439000006896;2376
323;0.9367901000005077;2376
324;0.9400144000001092;2376
325;0.9433695000006992;2376
326;0.9463816000006773;2376
327;0.949407400000382;2376
328;0.9519288999999844;2375
329;0.955232100000103;2375
330;0.9582618000004004;2375
331;0.9612059999999474;2375
332;0.9641928000000917;2375
333;0.9668897999999899;2375
334;0.9689667000002373;2375
335;0.9718699000004563;2375
336;0.973854100000608;2375
337;0.9759057000001121;2374
338;0.9778746000001775;2375
339;0.9809556000000157;2374
340;0.9839084000004732;2375
341;0.9857224000006681;2374
342;0.9879803000003449;2375
343;0.9910478000001604;2375
344;0.994050100000095;2375
345;0.997251700000561;2375
346;0.9998861000003672;2375
347;1.0018448000000717;2375
348;1.0038924999998926;2375
349;1.0068637000003946;2375
350;1.0088623999999982;2374
351;1.0108034000004409;2375
352;1.0127612000005684;2375
353;1.0147827999999208;2375
354;1.0168670000002749;2375
355;1.0187864999998055;2375
356;1.0206895000001168;2375
357;1.0229634000006627;2375
358;1.0258801999998468;2375
359;1.0291439000002356;2375
360;1.0321625000005952;2375
361;1.034990199999811;2376
362;1.0379880000000412;2375
363;1.0410165000002962;2376
364;1.0437234999999419;2376
365;1.0459860000000845;2375
366;1.0490161000006992;2375
367;1.0518927000002805;2375
368;1.0541102000006504;2375
369;1.0572900000006484;2375
370;1.0603028000004997;2375
371;1.0632909000005384;2375
372;1.0662128000003577;2375
373;1.0691971000005651;2375
374;1.0721049000003404;2375
375;1.0751624000004085;2375
376;1.0779865000004065;2375
377;1.0809970000000249;2375
378;1.0838549999998577;2375
379;1.0858161000005566;2375
380;1.0877809000003253;2375
381;1.089849800000593;2375
382;1.092011800000364;2375
383;1.0950201000005109;2375
384;1.0980820000004314;2375
385;1.1009656000005634;2375
386;1.1039670000000115;2375
387;1.1079765000004045;2374
388;1.110804700000699;2375
389;1.1139841000003798;2375
390;1.116971100000228;2374
391;1.1198322999998709;2375
392;1.1230049000005238;2375
393;1.1260302999999112;2375
394;1.1289486000005127;2375
395;1.132837300000574;2375
396;1.1374974999998813;2375
397;1.1418664000002536;2375
398;1.1452027000004819;2375
399;1.148292599999877;2375
400;1.15106250000008;2375
401;1.154111499999999;2375
402;1.1569949000004272;2375
403;1.1604064000002836;2375
404;1.1643557000006695;2375
405;1.1682557000003726;2375
406;1.1712244000000283;2375
407;1.1742528000004313;2375
408;1.1773259000001417;2375
409;1.1802662000000055;2375
410;1.1828386000006503;2375
411;1.1861110999998346;2375
412;1.1890563000006296;2376
413;1.1920820000004824;2375
414;1.1961363000000347;2374
415;1.1990265000004001;2375
416;1.2024113000006764;2375
417;1.206457300000693;2374
418;1.2104605000004085;2374
419;1.2144625999999334;2374
420;1.2179221000005782;2374
421;1.2197948000002725;2374
422;1.2220613999998022;2374
423;1.2250387000003684;2374
424;1.2280590000000302;2374
425;1.2310597000005146;2374
426;1.2339680000004591;2374
427;1.2372285999999804;2374
428;1.2399591000003056;2375
429;1.243216100000609;2375
430;1.2458915000006527;2375
431;1.2478845000005094;2375
432;1.2497360000006665;2375
433;1.2520468000002438;2375
434;1.2550580000006448;2375
435;1.2580642000002626;2374
436;1.2610703999998805;2374
437;1.26396990000012;2374
438;1.2669027000001734;2375
439;1.270018600000185;2374
440;1.2718314000003375;2374
441;1.274022600000535;2374
442;1.2769702000005054;2374
443;1.280155200000081;2375
444;1.2829123000001346;2374
445;1.2863490999998248;2375
446;1.2903167000004032;2375
447;1.2931132000003345;2374
448;1.295904999999948;2374
449;1.2978379000005589;2374
450;1.3008323000003656;2374
451;1.3028764999999112;2375
452;1.3058927000001859;2374
453;1.3090090000005148;2375
454;1.3120386000000508;2374
455;1.3150694000005387;2374
456;1.3167552000004434;2374
457;1.320042000000285;2374
458;1.3233178999998927;2374
459;1.3260274000003847;2374
460;1.3292185999998765;2374
461;1.3319295999999667;2374
462;1.3338848000003054;2374
463;1.335829300000114;2374
464;1.337754700000005;2374
465;1.3398297000003367;2374
466;1.3429501999999047;2374
467;1.3462853000000905;2375
468;1.3493053000001964;2374
469;1.3518829000004189;2374
470;1.3538867000006576;2374
471;1.3558258000002752;2374
472;1.3577946000004886;2374
473;1.3602418999998918;2374
474;1.3629925000004732;2375
475;1.3659544000001915;2375
476;1.367883900000379;2375
477;1.3708387000006041;2375
478;1.3728513000005478;2375
479;1.3763040000003457;2374
480;1.3792013000002044;2374
481;1.3819080000002941;2375
482;1.383759100000134;2375
483;1.3858116000001246;2376
484;1.387823699999899;2376
485;1.3898943000003783;2375
486;1.3930162000006021;2375
487;1.3960076000003028;2375
488;1.3990473000003476;2375
489;1.4009321000003183;2375
490;1.4028847999998106;2375
491;1.4048774000002595;2374
492;1.4068686999999045;2375
493;1.4103175000000192;2375
494;1.4128801000006206;2374
495;1.4159570000001622;2374
496;1.4189247000003888;2374
497;1.4212310000002617;2374
498;1.424127899999803;2374
499;1.4272483000004286;2375
500;1.4304283000001305;2375
501;1.4329139000001305;2375
502;1.4360320000005231;2374
503;1.439055400000143;2375
504;1.4420458000004146;2375
505;1.4450199000002613;2374
506;1.4479914000003191;2375
507;1.4509463000003961;2375
508;1.45385510000051;2375
509;1.4558842000005825;2376
510;1.4592591000000539;2375
511;1.4633739999999307;2375
512;1.4661142000004475;2376
513;1.468931800000064;2376
514;1.4722288000002663;2376
515;1.475330500000382;2376
516;1.478425000000243;2376
517;1.4813050000002477;2376
518;1.4838869000004706;2376
519;1.4858647000000929;2376
520;1.4878677000006064;2376
521;1.4898798000003808;2376
522;1.4919500000005428;2376
523;1.4952671999999438;2376
524;1.4981886000005034;2376
525;1.5009316000005128;2376
526;1.5027891999998246;2376
527;1.505258799999865;2376
528;1.5082398000004105;2376
529;1.511364400000275;2376
530;1.5142633000004935;2376
531;1.517868400000225;2376
532;1.5198387000000366;2376
533;1.522058399999878;2376
534;1.5238710000003266;2376
535;1.526895300000433;2375
536;1.530405299999984;2375
537;1.5329142999999021;2375
538;1.534847300000365;2375
539;1.5368545999999697;2375
540;1.5401228000000629;2375
541;1.543100100000629;2374
542;1.5459946000000855;2374
543;1.5489550000002055;2374
544;1.5519813999999315;2375
545;1.5552113000003374;2374
546;1.5581492999999682;2374
547;1.561168500000349;2374
548;1.5640559000003122;2374
549;1.5668424000004961;2374
550;1.568869800000357;2374
551;1.570850000000064;2374
552;1.573904300000322;2374
553;1.5772753999999622;2374
554;1.5802684000000227;2374
555;1.5839857000000848;2374
556;1.5869714999998905;2374
557;1.590280000000348;2374
558;1.593235199999981;2375
559;1.5972897999999986;2374
560;1.5998834000001807;2375
561;1.6018638000005012;2375
562;1.603856700000506;2375
563;1.6073448000006465;2375
564;1.6103868000000148;2375
565;1.6143793999999616;2375
566;1.6179830000000948;2375
567;1.620961399999942;2376
568;1.6239407000002757;2376
569;1.6262235000003784;2375
570;1.6294113000003563;2376
571;1.6321942000004128;2375
572;1.6349047000003338;2375
573;1.6368605000006937;2375
574;1.6389132000003883;2376
575;1.6421527000002243;2375
576;1.6452648000004046;2375
577;1.648240700000315;2376
578;1.650966100000005;2376
579;1.652853900000082;2376
580;1.6549284000002444;2375
581;1.658067200000005;2375
582;1.6610832000005757;2375
583;1.6641092999998364;2375
584;1.667921600000227;2375
585;1.6697515000005296;2375
586;1.6719097000004695;2375
587;1.6750359000006938;2375
588;1.6780180000005203;2375
589;1.6813099999999395;2375
590;1.6839583999999377;2375
591;1.6867996000000858;2375
592;1.6901231000001644;2375
593;1.69325310000022;2374
594;1.6961176000004343;2374
595;1.6994230999998763;2374
596;1.7019291000005978;2374
597;1.7039494999999079;2374
598;1.7072366000002148;2374
599;1.7102740000000267;2374
600;1.7132541999999376;2374
601;1.7159756000000925;2375
602;1.7189444000005096;2375
603;1.7208196999999927;2374
604;1.722888199999943;2374
605;1.7249200000005658;2375
606;1.7280733000006876;2375
607;1.7312938000004578;2374
608;1.733777000000373;2374
609;1.735856700000113;2374
610;1.7379676999998992;2374
611;1.7409629000003406;2374
612;1.7439540000004854;2374
613;1.7459732000006625;2374
614;1.7490827000001445;2374
615;1.75203860000056;2374
616;1.753781500000514;2374
617;1.7573720000000321;2374
618;1.7602366000000984;2374
619;1.7632892000001448;2375
620;1.7658300000002782;2374
621;1.7679154000006747;2374
622;1.7699446000005992;2374
623;1.772987500000454;2374
624;1.7760457000003953;2374
625;1.7790346000001591;2375
626;1.7820218000006207;2375
627;1.784936099999868;2375
628;1.7868543000004138;2374
629;1.7900623000004998;2374
630;1.7930695000004562;2374
631;1.7960766000005606;2374
632;1.7991253999998662;2374
633;1.8019168999999238;2374
634;1.8037970000004862;2374
635;1.807081200000539;2374
636;1.8100610000001325;2374
637;1.8129500000004555;2375
638;1.8149241000000984;2375
639;1.816765999999916;2375
640;1.818828399999802;2374
641;1.8207821000005424;2375
642;1.8227683000004617;2375
643;1.8247699000003195;2375
644;1.826916600000004;2375
645;1.8288769000000684;2375
646;1.830894000000626;2375
647;1.8327886000006401;2374
648;1.8347696000000724;2375
649;1.8369448000003104;2375
650;1.8399237000003268;2375
651;1.8419115000006059;2375
652;1.8438933000006728;2375
653;1.845845100000588;2375
654;1.8479107000002841;2375
655;1.8497287000000142;2375
656;1.851791800000683;2374
657;1.8538015000003725;2374
658;1.85699890000069;2375
659;1.8600649999998495;2375
660;1.8634044000000358;2375
661;1.8669716000003973;2375
662;1.8699018000006618;2375
663;1.8729019000002154;2376
664;1.8761640000002444;2376
665;1.8791645999999673;2375
666;1.8821756000006644;2375
667;1.8849581000004036;2376
668;1.8868603999999323;2376
669;1.8902242000003753;2376
670;1.8931659999998374;2376
671;1.896164900000258;2376
672;1.899170600000616;2375
673;1.9018886000003477;2375
674;1.9039645000002565;2375
675;1.9073742999999013;2375
676;1.9104203000006237;2375
677;1.9142906000006406;2375
678;1.9169231000005311;2375
679;1.9188641999999163;2375
680;1.921098599999823;2375
681;1.9241542999998273;2375
682;1.9271595000000161;2375
683;1.9301550999998653;2375
684;1.9328288000006069;2375
685;1.9349068999999872;2375
686;1.9367587000006097;2375
687;1.939066400000229;2374
688;1.9424300999999105;2374
689;1.9462386000004699;2374
690;1.9492673000004288;2374
691;1.951950399999987;2374
692;1.9539447000006476;2374
693;1.9572421000002578;2374
694;1.9601849999999104;2373
695;1.9631901000002472;2373
696;1.9659068000000843;2373
697;1.9678291999998692;2373
698;1.969868199999837;2374
699;1.9730757000006633;2374
700;1.9759070999998585;2374
701;1.978876300000593;2374
702;1.9818834000006973;2374
703;1.9838596999998117;2374
704;1.985830999999962;2374
705;1.9877227000006314;2374
706;1.989922700000534;2374
707;1.9929863000006662;2374
708;1.9959804999998596;2374
709;1.9991144000005079;2374
710;2.001870800000688;2374
711;2.0039526999999;2374
712;2.00706480000008;2374
713;2.010059799999908;2374
714;2.0130722000003516;2375
715;2.015828600000532;2375
716;2.018863400000555;2375
