;time;amplitude
0;0.004890599999271217;2514
1;0.010199199999988195;2514
2;0.01521839999986696;2514
3;0.019951299999775074;2513
4;0.02485279999928025;2513
5;0.029787800000121933;2512
6;0.03481589999955759;2512
7;0.039711800000077346;2512
8;0.04355989999930898;2511
9;0.04744309999932739;2512
10;0.05177409999942029;2512
11;0.05571999999938271;2512
12;0.059733000000051106;2511
13;0.06370889999925566;2511
14;0.06773919999977807;2511
15;0.07170749999932013;2510
16;0.07571949999965;2510
17;0.07972139999947103;2509
18;0.0832591999997021;2509
19;0.08664079999925889;2508
20;0.09062869999979739;2508
21;0.09468789999937144;2508
22;0.09851619999972172;2507
23;0.10255589999997028;2507
24;0.10656459999972867;2507
25;0.11056079999980284;2506
26;0.1140666000001147;2505
27;0.11707829999977548;2505
28;0.1205376999996588;2504
29;0.1245546000000104;2504
30;0.12855899999976828;2503
31;0.13216130000000703;2503
32;0.13534859999981563;2503
33;0.13832279999951425;2502
34;0.14256789999944885;2502
35;0.14664689999972325;2502
36;0.15035429999988992;2501
37;0.15330509999967035;2501
38;0.15737959999933082;2500
39;0.1613882999999987;2500
40;0.16512089999923774;2500
41;0.16958119999981136;2499
42;0.17357480000009673;2499
43;0.17755179999949178;2499
44;0.1815073999996457;2499
45;0.1857190000000628;2498
46;0.18955989999994927;2497
47;0.1936374999995678;2497
48;0.19722829999955138;2496
49;0.2005325999998604;2495
50;0.2045442999997249;2494
51;0.20853119999992487;2494
52;0.21263469999939844;2493
53;0.21625799999947048;2492
54;0.22057219999987865;2492
55;0.22454649999963294;2491
56;0.22826439999971626;2491
57;0.2316700999999739;2490
58;0.23554129999956785;2489
59;0.23950969999987137;2489
60;0.24359009999989212;2488
61;0.24754329999996116;2488
62;0.25156929999957356;2486
63;0.25554339999962394;2486
64;0.25948699999935343;2485
65;0.2635173999997278;2484
66;0.2675831999995353;2483
67;0.2715361999999004;2483
68;0.2756621999997151;2482
69;0.27905769999961194;2481
70;0.28197699999964243;2482
71;0.2866052999997919;2481
72;0.29059109999980137;2480
73;0.29463289999966946;2479
74;0.29856500000005326;2479
75;0.302561099999366;2478
76;0.3065108999999211;2477
77;0.310551999999916;2476
78;0.3145688999993581;2475
79;0.31856949999928474;2475
80;0.32248319999962405;2474
81;0.3265722999994978;2473
82;0.33054639999954816;2473
83;0.33455489999960264;2472
84;0.33813779999945837;2472
85;0.3426071999992928;2471
86;0.346591399999852;2471
87;0.35051909999947384;2470
88;0.3543679999993401;2469
89;0.3585823999992499;2468
90;0.3625414999996792;2467
91;0.3662974999997459;2466
92;0.3702880999999252;2466
93;0.37457659999927273;2465
94;0.37855559999934485;2465
95;0.3821111999995992;2465
96;0.3862190999998347;2464
97;0.38952489999974205;2463
98;0.39358119999997143;2462
99;0.39753810000001977;2461
100;0.40034860000014305;2460
101;0.4046056999995926;2460
102;0.4085549000001265;2459
103;0.41256699999939883;2458
104;0.4164999999993597;2457
105;0.4206152999995538;2457
106;0.42458409999926516;2457
107;0.42855839999992895;2455
108;0.4321583999999348;2454
109;0.4353940999999395;2454
110;0.43835439999929804;2453
111;0.4426341999997021;2453
112;0.4466714999998658;2452
113;0.45062699999925826;2451
114;0.4546309999996083;2449
115;0.4586215999997876;2448
116;0.46261019999928976;2447
117;0.46639439999944443;2447
118;0.4706209999994826;2446
119;0.4746255999998539;2445
120;0.4786389999999301;2444
121;0.48207409999940865;2443
122;0.4855145999999877;2442
123;0.48960059999990335;2442
124;0.4935749999995096;2440
125;0.4975699999995413;2439
126;0.5016141999994943;2438
127;0.5055709999996907;2438
128;0.5095686999993632;2436
129;0.5135817000000316;2435
130;0.5175802999992811;2434
131;0.5215805999996519;2433
132;0.5255756999995356;2432
133;0.5291219000000638;2431
134;0.5321381999992809;2430
135;0.53532659999928;2429
136;0.5392286999995122;2428
137;0.5425597999992533;2427
138;0.5462219999999434;2426
139;0.5502237999999124;2425
140;0.5533206999998583;2424
141;0.5573613999995359;2423
142;0.5614267999999356;2422
143;0.5651135999996768;2421
144;0.5685595999993893;2420
145;0.5725689000000784;2420
146;0.5765688999999838;2419
147;0.5806228000001283;2418
148;0.5846848999999565;2417
149;0.5886185999997906;2416
150;0.5926472999999532;2416
151;0.5966743999997561;2415
152;0.6000639999992927;2414
153;0.6036540999994031;2413
154;0.6076202999993257;2412
155;0.611652900000081;2412
156;0.615125899999839;2411
157;0.6185437999993155;2410
158;0.6223523999997269;2410
159;0.6263547999997172;2409
160;0.6303230999992593;2408
161;0.6331798999999592;2407
162;0.6362616999995225;2406
163;0.6406798999996681;2405
164;0.6445467999992616;2403
165;0.6484339999997246;2402
166;0.6514876000001095;2402
167;0.6555508000001282;2401
168;0.659535899999355;2398
169;0.6636230999993131;2397
170;0.6674925999996049;2396
171;0.6703920999998445;2395
172;0.674374700000044;2394
173;0.6783840999996755;2394
174;0.6822293999994145;2392
175;0.6855445999999574;2391
176;0.6895909999993819;2390
177;0.6935647999998764;2388
178;0.6975861000000805;2387
179;0.700514999999541;2386
180;0.7046050999997533;2386
181;0.7085674999998446;2385
182;0.7125714999992852;2384
183;0.7171764999993684;2383
184;0.7205182999996396;2382
185;0.7246053999997457;2381
186;0.7286739999999554;2380
187;0.7322690000000875;2380
188;0.7366883999993661;2379
189;0.7406619999992472;2379
190;0.7446444999995947;2377
191;0.7484354999996867;2376
192;0.7526775999995152;2375
193;0.7566718999996738;2375
194;0.7606307999994897;2374
195;0.7646982999995089;2374
196;0.7685646999998426;2373
197;0.7725697999994736;2372
198;0.7765602999998009;2371
199;0.7805610999994315;2370
200;0.7846933999999237;2369
201;0.7885716999999204;2368
202;0.7925848999993832;2367
203;0.7965745999999854;2366
204;0.8006571999994776;2365
205;0.8045471999994334;2364
206;0.8085181999995257;2363
207;0.8125702999996065;2362
208;0.8165433999993184;2361
209;0.8205912999992506;2361
210;0.8240682999994533;2360
211;0.8285627999994176;2359
212;0.8314439999994647;2359
213;0.835591299999578;2358
214;0.8394422999999733;2357
215;0.842024799999308;2356
216;0.8450270999992426;2356
217;0.8491613999995025;2355
218;0.8525177999999869;2355
219;0.8555429999996704;2355
220;0.8596167999994577;2354
221;0.8635799999992742;2353
222;0.8676035999997112;2352
223;0.8715003999996043;2352
224;0.8745210999995834;2352
225;0.8785963000000265;2351
226;0.8821239999997488;2350
227;0.8867718000001332;2350
228;0.8905645999993794;2350
229;0.8945499000001291;2349
230;0.8983881999993173;2348
231;0.9025461000001087;2348
232;0.906572399999277;2347
233;0.9105761000000712;2347
234;0.914611999999579;2346
235;0.9184035999996922;2346
236;0.9225971999994727;2345
237;0.9265749999995023;2344
238;0.930563500000062;2343
239;0.9340975999994043;2343
240;0.9375645000000077;2343
241;0.9415757999995549;2342
242;0.9455785999998625;2342
243;0.9492366999993465;2341
244;0.9535816999996314;2340
245;0.9575568999998723;2339
246;0.9616042999996353;2339
247;0.9652110999995784;2338
248;0.9685397999992347;2338
249;0.9725668000000951;2337
250;0.9765584999995554;2336
251;0.9805723999998008;2335
252;0.9845780999994531;2334
253;0.9885686999996324;2334
254;0.9925489999995989;2333
255;0.9966223000001264;2333
256;1.0005555999996432;2333
257;1.0045985999995537;2332
258;1.0085607000000891;2331
259;1.0124939999996059;2331
260;1.016526999999769;2330
261;1.0205896999996185;2329
262;1.0245703999999023;2329
263;1.0281827999997404;2328
264;1.0315560999997615;2328
265;1.035564599999816;2327
266;1.0395722999992358;2326
267;1.0436276000000362;2326
268;1.047553099999277;2326
269;1.0503687999998874;2325
270;1.0533787999993365;2325
271;1.0563646000000517;2325
272;1.0602842999996938;2325
273;1.0630654999995386;2324
274;1.0660454999997455;2324
275;1.0692506999994293;2324
276;1.0722200999998677;2323
277;1.07511919999979;2323
278;1.0783348999993905;2322
279;1.0812974999998914;2322
280;1.0843519000000015;2322
281;1.0873259999998481;2321
282;1.0903443999995943;2321
283;1.0935039999994842;2321
284;1.0974504999994679;2321
285;1.1010024999995949;2321
286;1.1039820999994845;2321
287;1.1072981999996045;2321
288;1.110453499999494;2321
289;1.1146734999992987;2321
290;1.1179824000000735;2321
291;1.1202164999995148;2321
292;1.1233925999995336;2321
293;1.1261705999995684;2321
294;1.129172999999355;2321
295;1.1318275999992693;2322
296;1.134260999999242;2322
297;1.1370829999996204;2322
298;1.1405193999999028;2321
299;1.1440570999993724;2321
300;1.147422799999731;2322
301;1.1502811000000293;2322
302;1.1532226999997874;2322
303;1.1561458999995011;2322
304;1.1591373000001113;2322
305;1.162140299999919;2322
306;1.16497949999939;2322
307;1.168247199999314;2322
308;1.171144699999786;2322
309;1.1742485999993733;2322
310;1.1770612999998775;2322
311;1.1800679999996646;2321
312;1.1832875999998578;2321
313;1.1862685999994937;2322
314;1.189280499999768;2322
315;1.1922844999999143;2322
316;1.1952655999994022;2322
317;1.1979162999996333;2322
318;1.2013357999994696;2322
319;1.2055647999995927;2321
320;1.2095699000001332;2322
321;1.2135001999995438;2323
322;1.2173900999996476;2323
323;1.2214643999996042;2323
324;1.2255549000001338;2323
325;1.2294286999995165;2324
326;1.233590899999399;2324
327;1.2376642999997785;2324
328;1.2428110000000743;2325
329;1.2478013999998439;2325
330;1.2515815999995539;2325
331;1.255603799999335;2326
332;1.2596585000001141;2325
333;1.2632309000000532;2325
334;1.2664183999995657;2325
335;1.2706073999997898;2325
336;1.2746168999992733;2325
337;1.278184699999656;2325
338;1.2814705000000686;2324
339;1.2855934999997771;2323
340;1.2895989999997255;2324
341;1.2936263000001418;2324
342;1.2976122000000032;2323
343;1.3015881000001173;2323
344;1.3056274000000485;2323
345;1.3096236000001227;2323
346;1.3136390999998184;2323
347;1.317650799999683;2323
348;1.3215157999993608;2323
349;1.3251995999999053;2324
350;1.3283949999995457;2323
351;1.3322310999992624;2324
352;1.3353419999994003;2324
353;1.3393105999994077;2324
354;1.3423706999992646;2324
355;1.34660889999941;2324
356;1.3505812999992486;2325
357;1.3542498999995587;2325
358;1.3573499999993146;2325
359;1.3605747999999949;2325
360;1.3646026999995229;2325
361;1.3685866999994687;2326
362;1.3721448999995118;2327
363;1.3766451000001325;2326
364;1.3805904999999257;2327
365;1.3847251999995933;2327
366;1.388688000000002;2327
367;1.392675899999631;2327
368;1.3966499999996813;2328
369;1.400641899999755;2329
370;1.4046118999995088;2329
371;1.4086259999994581;2330
372;1.4127024999997957;2330
373;1.4166526999997586;2330
374;1.4205800999998246;2331
375;1.4246155000000726;2332
376;1.4286345999998957;2332
377;1.4322118000000046;2332
378;1.4356591999994635;2332
379;1.4394379999994271;2332
380;1.4436798999995517;2333
381;1.4476568000000043;2333
382;1.451629199999843;2333
383;1.4555961999994906;2333
384;1.4596733999997014;2334
385;1.463648899999498;2334
386;1.4675983999995879;2334
387;1.4714710999996896;2335
388;1.4756944999999178;2335
389;1.479728599999362;2335
390;1.4833684999994148;2335
391;1.4865583999999217;2335
392;1.4906206999994538;2335
393;1.4946946000000025;2335
394;1.49826849999954;2336
395;1.5014092999999775;2336
396;1.505640499999572;2336
397;1.5096579999999449;2337
398;1.5137159999994765;2338
399;1.5177118000001428;2338
400;1.5216080000000147;2339
401;1.5256517999996504;2340
402;1.5282812999994349;2340
403;1.5322920999997223;2340
404;1.5367096999998466;2340
405;1.5406355999994048;2340
406;1.5442069000000629;2341
407;1.5472067999999126;2341
408;1.5506620999994993;2342
409;1.5544092000000092;2342
410;1.5586225999995804;2343
411;1.5627043999993475;2344
412;1.5664888999999675;2344
413;1.5706497999999556;2345
414;1.57442170000013;2346
415;1.578648499999872;2346
416;1.5820854999992662;2346
417;1.5855836000000636;2346
418;1.5896468999999342;2346
419;1.5931135999999242;2347
420;1.596592299999429;2347
421;1.6002386000000115;2347
422;1.6045282999994015;2348
423;1.6081521999994948;2349
424;1.6110751999995045;2349
425;1.6146752999993623;2350
426;1.61846819999937;2351
427;1.6225062999992588;2351
428;1.6265152999994825;2352
429;1.6295485999999073;2352
430;1.6333827999997084;2353
431;1.6374455999994098;2353
432;1.6414373999996315;2354
433;1.6455192999992505;2354
434;1.6492386999998416;2355
435;1.6525864999994155;2355
436;1.6565978999997242;2356
437;1.6606852999993862;2357
438;1.6643000999993092;2357
439;1.6675781999992978;2358
440;1.6716049999995448;2359
441;1.6756500000001324;2360
442;1.6795671999998376;2361
443;1.6837117999994007;2361
444;1.6875884000000951;2362
445;1.691641699999309;2362
446;1.6957408999996915;2363
447;1.6992467000000033;2364
448;1.7036368999997649;2364
449;1.707627599999796;2365
450;1.7114231999994445;2366
451;1.7152028999998947;2366
452;1.718184299999848;2367
453;1.721378100000038;2368
454;1.7255457999999635;2368
455;1.7295476999997845;2369
456;1.7335981999995056;2370
457;1.7375936999997066;2370
458;1.7416567999998733;2371
459;1.7457015999998475;2371
460;1.7493933999994624;2372
461;1.7536388999997143;2372
462;1.7576036000000386;2373
463;1.761649199999738;2374
464;1.7651151999998547;2375
465;1.769695999999385;2376
466;1.7737246999995477;2377
467;1.777632100000119;2378
468;1.7815293999992718;2380
469;1.7856203999999707;2381
470;1.789699699999801;2381
471;1.7936030999999275;2382
472;1.7976645999997345;2383
473;1.8016146999998455;2384
474;1.8054363999999623;2385
475;1.809636899999532;2386
476;1.813637899999776;2388
477;1.8164168999992398;2389
478;1.820699799999602;2389
479;1.8245822999997472;2390
480;1.8285989999994854;2392
481;1.8320264999993014;2392
482;1.8355972999997903;2393
483;1.8391673999994964;2394
484;1.8423230999997031;2395
485;1.8453097999999954;2396
486;1.8481146999993143;2396
487;1.8513170999995054;2396
488;1.8543159999999261;2397
489;1.8573282999996081;2398
490;1.8603232999994361;2398
491;1.8631879999993544;2399
492;1.866320999999516;2400
493;1.869167899999411;2401
494;1.872320899999977;2402
495;1.875322099999721;2403
496;1.878179100000125;2404
497;1.88122039999962;2404
498;1.88412149999931;2405
499;1.887322999999924;2405
500;1.8903248999995412;2406
501;1.8933296999994127;2407
502;1.8963123999992604;2407
503;1.89929630000006;2408
504;1.9021797999994305;2409
505;1.9063097999996899;2409
506;1.909328099999584;2410
507;1.9123075999996217;2411
508;1.915038299999651;2412
509;1.9183280999995986;2412
510;1.9211651999994501;2414
511;1.9243190999995932;2414
512;1.9273167999999714;2415
513;1.9302641999993284;2416
514;1.9331654999996317;2417
515;1.9361764999994193;2418
516;1.9393273999994562;2418
517;1.942329299999983;2419
518;1.9451226999999562;2420
519;1.947960200000125;2420
520;1.951026899999306;2420
521;1.954704199999469;2421
522;1.9586057999995319;2422
523;1.9625098999995316;2423
524;1.9665162999999666;2424
525;1.9705168000000413;2425
526;1.974507399999311;2426
527;1.978522499999599;2427
528;1.9824760000001334;2428
529;1.986505799999577;2429
530;1.9905172999997376;2430
531;1.9941275999999561;2430
532;1.9976640999993833;2431
533;2.0014823000001343;2432
534;2.0055146999993667;2432
535;2.0095264999999927;2433
536;2.0135271999997713;2435
537;2.0165969999998197;2435
538;2.020503299999291;2436
539;2.0245254999999815;2437
540;2.0285125000000335;2438
541;2.0324719000000186;2439
542;2.036309799999799;2440
543;2.0391523999996934;2441
544;2.0430067999996027;2442
545;2.0462438999993537;2444
546;2.049256499999501;2444
547;2.0523247000000993;2444
548;2.0550161000001026;2445
549;2.058416799999577;2446
550;2.0625836999997773;2447
551;2.066904700000123;2448
552;2.0724577999999383;2449
553;2.0770835999992414;2451
554;2.0819965999999113;2452
555;2.0871102999999493;2453
556;2.092106199999762;2454
557;2.097136099999261;2456
558;2.102117999999791;2457
559;2.1066971999998714;2459
560;2.1116552999992564;2460
561;2.115455600000132;2460
562;2.119415299999673;2460
563;2.1226811999995334;2461
564;2.1265919999996186;2462
565;2.1305146999993667;2462
566;2.1335510999997496;2463
567;2.1375406999995903;2464
568;2.1414552999995067;2465
569;2.1443107999994027;2466
570;2.1471965999999156;2467
571;2.1501373999999487;2468
572;2.1533855999996376;2468
573;2.1560937999993257;2469
574;2.159067900000082;2469
575;2.162069699999847;2470
576;2.1651122999992367;2470
577;2.1683509999993476;2471
578;2.171284000000014;2471
579;2.174272299999757;2472
580;2.177157199999783;2473
581;2.180261200000132;2473
582;2.183274099999835;2473
583;2.1862703999995574;2474
584;2.189357799999925;2475
585;2.1922942000001058;2476
586;2.195267299999614;2476
587;2.1979419999997845;2477
588;2.2013624000001073;2478
589;2.2042774999999892;2479
590;2.2072385999999824;2479
591;2.2103268000000753;2479
592;2.2130065000001196;2480
593;2.216313199999604;2480
594;2.219236099999762;2481
595;2.2222353999995903;2482
596;2.225240599999779;2482
597;2.228286599999592;2483
598;2.2310661000001346;2483
599;2.234329999999318;2484
600;2.2372607999996035;2485
601;2.240344699999696;2485
602;2.2432558999998946;2486
603;2.2463330999999016;2487
604;2.2493361999995614;2488
605;2.25226179999936;2488
606;2.2552830999993603;2490
607;2.2583551999996416;2490
608;2.2620741000000635;2491
609;2.265074099999765;2492
610;2.2683401999993293;2493
611;2.2712164999993547;2493
612;2.274300199999743;2494
613;2.277032699999836;2494
614;2.280006500000127;2495
615;2.2836216999994576;2496
616;2.2877445999993142;2496
617;2.2913902000000235;2497
618;2.294606499999645;2498
619;2.2982729999994262;2498
620;2.3013522000001103;2499
621;2.3043119999992996;2499
622;2.3073717999996006;2500
623;2.3117315999998027;2500
624;2.3150900999999067;2501
625;2.318714099999852;2501
626;2.3225132999996276;2502
627;2.3253685999998197;2501
628;2.329654699999992;2502
629;2.3336642999993273;2502
630;2.3376594000001205;2503
631;2.341711299999588;2503
632;2.345609500000137;2504
633;2.349524599999313;2505
634;2.353698899999472;2505
635;2.3575394999998025;2506
636;2.3616489999994883;2507
637;2.3652635999997074;2508
638;2.368610499999704;2508
639;2.3722438999993756;2508
640;2.3765634999999747;2509
641;2.380542500000047;2509
642;2.3836115999993126;2509
643;2.3876706000000922;2510
644;2.3916675999998915;2511
645;2.395658899999944;2510
646;2.3996277999995073;2511
647;2.403661999999713;2512
648;2.4076719999993657;2512
649;2.4116635000000315;2512
650;2.415177599999879;2512
651;2.4185096000001067;2512
652;2.4226902000000337;2513
653;2.426667499999894;2513
654;2.4306925999999294;2514
655;2.434590699999717;2514
656;2.438650499999312;2515
657;2.442678999999771;2515
658;2.446677500000078;2516
659;2.449041099999704;2516
660;2.452116499999647;2516
661;2.4551080999999613;2516
662;2.4581035999999585;2516
663;2.4610640000000785;2516
664;2.4640841999998884;2517
665;2.4675796000001355;2517
666;2.4716951999998855;2517
667;2.47572129999935;2517
668;2.4797435000000405;2517
669;2.4837133000000904;2517
670;2.487603699999454;2517
671;2.4916027999997823;2517
672;2.4953090999997585;2518
673;2.4980796999998347;2518
674;2.501292399999329;2518
675;2.504298399999243;2518
676;2.5073099999999613;2518
677;2.510279199999786;2518
678;2.5133380999996007;2518
679;2.5163408999997046;2519
680;2.5193466999999146;2519
681;2.522329699999318;2519
682;2.5253405999992538;2519
683;2.5283309999995254;2519
684;2.5309532999999647;2520
685;2.534336299999268;2520
686;2.537330799999836;2520
687;2.5403470000001107;2520
688;2.5433364999998958;2520
689;2.546329400000104;2520
690;2.549344499999279;2521
691;2.5523151999996117;2521
692;2.555270500000006;2522
693;2.5580214000001433;2522
694;2.5610663999996177;2522
695;2.5640604999998686;2522
696;2.567581700000119;2522
697;2.571550599999682;2522
698;2.575730300000032;2522
699;2.579581899999539;2522
700;2.5824336999994557;2522
701;2.586591700000099;2522
702;2.59015349999936;2521
703;2.5932087999999567;2521
704;2.5962955999993937;2522
705;2.5992950999998357;2521
706;2.6023182999997516;2521
707;2.6050004999997327;2521
708;2.6080574999996315;2521
709;2.6113007999992988;2521
710;2.614207599999645;2521
711;2.6170658000000913;2521
712;2.6200672999993913;2521
713;2.6230752000001303;2521
714;2.6260403999995106;2521
715;2.6290437999996357;2520
716;2.632203999999547;2520
717;2.635131299999557;2520
718;2.6381195999992997;2520
719;2.641219799999817;2520
