;time;amplitude
0;0.005487699999321194;2428
1;0.011477999999442545;2428
2;0.016476199999488017;2429
3;0.021489699999619916;2429
4;0.025844799999504176;2429
5;0.030808199999228236;2429
6;0.035227299999860406;2429
7;0.04002039999977569;2429
8;0.04489749999993364;2430
9;0.04964979999931529;2429
10;0.0534349999998085;2430
11;0.05737749999934749;2429
12;0.06051149999984773;2430
13;0.06499480000002222;2430
14;0.06895329999952082;2430
15;0.07293149999986781;2430
16;0.0780743999994229;2430
17;0.0818820999993477;2430
18;0.08585059999950317;2429
19;0.08987019999949553;2430
20;0.09392029999980878;2430
21;0.09788969999954134;2430
22;0.10187689999929717;2430
23;0.10587329999998474;2430
24;0.10982629999944038;2431
25;0.11385389999941253;2431
26;0.11787499999991269;2430
27;0.12170339999920543;2431
28;0.125671699999657;2431
29;0.12814299999990908;2432
30;0.1316804999996748;2432
31;0.13574029999927006;2431
32;0.13976179999917804;2432
33;0.1436995999993087;2432
34;0.14771659999951225;2432
35;0.15161039999929926;2432
36;0.15574319999996078;2432
37;0.15974909999931697;2432
38;0.16371739999976853;2432
39;0.16777629999978672;2432
40;0.17173709999951825;2432
41;0.17576609999923676;2432
42;0.17928359999950771;2433
43;0.18379399999957968;2432
44;0.18775759999971342;2433
45;0.19131279999965045;2433
46;0.194678699999713;2433
47;0.1977006999995865;2433
48;0.20175579999977344;2433
49;0.2053237000000081;2433
50;0.20870389999981853;2433
51;0.212363099999493;2432
52;0.21570189999965805;2433
53;0.21972219999952358;2433
54;0.22372269999959826;2433
55;0.2277455999992526;2434
56;0.23068160000002536;2434
57;0.23474799999985407;2433
58;0.23831179999979213;2434
59;0.24170809999941412;2434
60;0.2453881999999794;2434
61;0.24867559999984223;2434
62;0.2526674999999159;2434
63;0.2567544999992606;2434
64;0.2607349999998405;2434
65;0.2647614999996222;2434
66;0.26872479999929055;2434
67;0.27273389999936626;2434
68;0.2767297000000326;2434
69;0.2807241000000431;2434
70;0.2847267999995893;2435
71;0.28872580000006565;2434
72;0.2927239999999074;2435
73;0.29666379999980563;2435
74;0.3002779999997074;2434
75;0.3032368999993196;2434
76;0.3066945999999007;2434
77;0.31078099999922415;2435
78;0.3132350999994742;2435
79;0.31669439999950555;2435
80;0.319685199999185;2435
81;0.32369529999959923;2435
82;0.32776079999985086;2435
83;0.3304951999998593;2435
84;0.3334339999992153;2435
85;0.33645119999982853;2435
86;0.3405200999995941;2436
87;0.3435187999994014;2435
88;0.3473573999999644;2435
89;0.3506547999995746;2436
90;0.3544614999991609;2435
91;0.3574066999999559;2435
92;0.3604775999992853;2435
93;0.36344310000004043;2435
94;0.3664374999998472;2435
95;0.36942329999965295;2435
96;0.37242369999967195;2435
97;0.37524799999937386;2435
98;0.37816899999961606;2436
99;0.3814481999997952;2435
100;0.38445950000004814;2436
101;0.3874502999997276;2436
102;0.39021599999978207;2436
103;0.3932156999999279;2436
104;0.3964903999994931;2436
105;0.39945279999938066;2436
106;0.4024242999994385;2435
107;0.4054223999992246;2435
108;0.4082224999992832;2435
109;0.4112539999996443;2435
110;0.41456249999919237;2435
111;0.41748789999928704;2435
112;0.4214535999999498;2435
113;0.42514940000000934;2436
114;0.4285145999992892;2436
115;0.43141930000001594;2435
116;0.43444499999986874;2435
117;0.43745099999978265;2436
118;0.4412525999996433;2436
119;0.44444079999993846;2436
120;0.4474267999994481;2436
121;0.45050670000000537;2436
122;0.4545792999997502;2436
123;0.45944349999990663;2436
124;0.4623523000000205;2436
125;0.4666155999993862;2436
126;0.47061779999967257;2436
127;0.47461479999947187;2436
128;0.47854889999962325;2436
129;0.48260879999997996;2436
130;0.4866184999991674;2436
131;0.48943009999948117;2436
132;0.4924671999997372;2436
133;0.49645869999949355;2436
134;0.4994874999993044;2436
135;0.5026222999995298;2436
136;0.5066148999994766;2436
137;0.5106121999997413;2436
138;0.5136097999993581;2436
139;0.5176087999998344;2436
140;0.5216185999997833;2436
141;0.5256097999999838;2436
142;0.529370199999903;2436
143;0.5336203999995632;2436
144;0.5376126999999542;2436
145;0.5412836999994397;2436
146;0.5443655999997645;2436
147;0.5474359999998342;2436
148;0.5507648999991943;2437
149;0.5544333999996525;2436
150;0.557523599999513;2436
151;0.5620313999997961;2436
152;0.5657520999993721;2436
153;0.5700154999994993;2436
154;0.5737239999998565;2437
155;0.5780284999991636;2437
156;0.5828107999996064;2437
157;0.586779100000058;2437
158;0.5907692999999199;2436
159;0.5948446999991575;2436
160;0.5990100999997594;2436
161;0.6028000999995129;2436
162;0.6070227000000159;2436
163;0.6120533999992404;2436
164;0.6170342999994318;2436
165;0.6207979999999225;2436
166;0.6250231999993048;2436
167;0.6293730999996114;2436
168;0.6324566999992385;2436
169;0.6354824000000008;2436
170;0.6386139999995066;2436
171;0.6426150999996025;2436
172;0.6453773999992336;2436
173;0.6496084999998857;2436
174;0.6534911999997348;2436
175;0.6576115999996546;2436
176;0.6615769;2436
177;0.6656402999997226;2435
178;0.6696170999994138;2435
179;0.673609899999974;2435
180;0.6776249999993524;2435
181;0.6816401999994923;2436
182;0.6856099999995422;2436
183;0.6896115999998074;2435
184;0.6934558999992078;2436
185;0.6966524999998001;2436
186;0.7006183999992572;2436
187;0.7046040999994148;2436
188;0.7086157999992793;2436
189;0.7123498999999356;2436
190;0.7156250999996701;2436
191;0.7196053999996366;2436
192;0.7236149000000296;2435
193;0.7276140999993004;2436
194;0.7304343999994671;2436
195;0.7335069999999178;2436
196;0.7375847999992402;2436
197;0.7415338999999221;2436
198;0.7453482999999324;2436
199;0.7486374000000069;2436
200;0.7526184999996985;2436
201;0.7554772999992565;2436
202;0.7585058999993635;2436
203;0.761598099999901;2436
204;0.7656149999993431;2436
205;0.7695662999994966;2436
206;0.7736206999998103;2436
207;0.7776078999995661;2436
208;0.7816401999998561;2436
209;0.7853236999999353;2436
210;0.7883489999994708;2437
211;0.7913592999993853;2437
212;0.7945787999997265;2437
213;0.7990675999999439;2436
214;0.8038339999993696;2436
215;0.8076300999991872;2437
216;0.8117554000000382;2437
217;0.8158404999994673;2437
218;0.8198607999993328;2438
219;0.8237851999992927;2438
220;0.8278801999995267;2438
221;0.832050099999833;2437
222;0.8369990999999573;2437
223;0.8409999999994398;2438
224;0.8449709999995321;2437
225;0.8490278999997827;2437
226;0.8540308999999979;2437
227;0.8590136999991955;2437
228;0.8638039999996181;2437
229;0.8680207999996128;2437
230;0.8720076999998128;2437
231;0.8766206000000238;2437
232;0.8810391999995772;2436
233;0.8860132999998314;2437
234;0.8910102999998344;2436
235;0.8950276999994458;2436
236;0.9000278999992588;2437
237;0.905029999999897;2437
238;0.9095017999998163;2436
239;0.9139015999999174;2436
240;0.9179337999994459;2437
241;0.9229439000000639;2437
242;0.9270173999993858;2437
243;0.9305144999998447;2437
244;0.9350424999993265;2437
245;0.9385165999992751;2437
246;0.9426991999998791;2437
247;0.9464750999995886;2437
248;0.9495122999996966;2437
249;0.9525899000000209;2437
250;0.9570549000000028;2437
251;0.9620568999998795;2437
252;0.9670256999997946;2437
253;0.9720485999996527;2437
254;0.9770535999996355;2436
255;0.9809924999999566;2436
256;0.9850118999993356;2437
257;0.9890188999997918;2437
258;0.9940193999991607;2437
259;0.9990757999994457;2437
260;1.0025046999999176;2437
261;1.00553249999939;2437
262;1.0100100999998176;2438
263;1.0140142000000196;2438
264;1.017548999999235;2438
265;1.0220871999999872;2438
266;1.0270764999995663;2438
267;1.031029299999318;2438
268;1.035524599999917;2438
269;1.0400598999995054;2438
270;1.0440161999995325;2439
271;1.048033499999292;2439
272;1.0515605999999025;2439
273;1.0560505999992529;2439
274;1.0610340999992331;2439
275;1.0644906999996238;2438
276;1.0675815999993574;2438
277;1.0720823999999993;2438
278;1.0770314999999755;2439
279;1.0803869999999733;2438
280;1.0834703999998965;2438
281;1.0880862999993042;2438
282;1.0930408999993233;2438
283;1.0974754999997458;2438
284;1.101955199999793;2438
285;1.1059559999994235;2438
286;1.1098806999998487;2438
287;1.1138506999996025;2438
288;1.1178943999993862;2437
289;1.1214514999992389;2437
290;1.125884799999767;2437
291;1.1294246999996176;2438
292;1.1324580000000424;2437
293;1.1357579999994414;2438
294;1.1399615999998787;2438
295;1.1438944999999876;2438
296;1.1475273999994897;2438
297;1.1505245999996987;2438
298;1.1535083999997369;2438
299;1.1565332999998645;2438
300;1.1595385999999053;2438
301;1.1624638999992385;2438
302;1.1654746999993222;2438
303;1.1684897999994064;2438
304;1.1715196999994077;2438
305;1.1754870999993727;2438
306;1.1794588999991902;2438
307;1.182546000000002;2438
308;1.1865715999992972;2438
309;1.1905451999991783;2438
310;1.194568199999594;2438
311;1.1985762999993312;2439
312;1.2025357999991684;2439
313;1.2065800999998828;2439
314;1.2095427999993262;2439
315;1.213546199999655;2439
316;1.216494899999816;2439
317;1.219472499999938;2439
318;1.2224552999996376;2439
319;1.2255725999993956;2439
320;1.2294680999993943;2439
321;1.2325332999998864;2440
322;1.2355062999995425;2440
323;1.2384892000000036;2439
324;1.2415434999993522;2440
325;1.244528199999877;2440
326;1.2474815999994462;2440
327;1.2504999999991924;2440
328;1.2534574999999677;2440
329;1.2564704999995229;2441
330;1.25954289999936;2440
331;1.2636517999999342;2441
332;1.2676495999994586;2441
333;1.271644199999173;2441
334;1.2756555999994816;2441
335;1.2795135999995182;2441
336;1.2825370999998995;2440
337;1.2856369999999515;2440
338;1.2883652000000438;2440
339;1.291384599999219;2440
340;1.294364699999278;2440
341;1.2979316999999355;2440
342;1.3020442999995794;2440
343;1.3060456999992311;2440
344;1.3098147000000608;2440
345;1.3134618999993108;2440
346;1.3165406999996776;2440
347;1.3210466000000451;2441
348;1.3260356999999203;2441
349;1.3295633999996426;2441
350;1.3338628999999855;2441
351;1.3378312999993796;2441
352;1.3419145999996545;2441
353;1.345445099999779;2442
354;1.3501025999994454;2442
355;1.3550485999994635;2442
356;1.3588340999995125;2442
357;1.3624071999993248;2442
358;1.3671242000000348;2442
359;1.3720722999996724;2443
360;1.3761901999996553;2443
361;1.38109489999988;2442
362;1.3860846999996284;2443
363;1.3910505999992893;2442
364;1.3948338999998668;2442
365;1.3990547999992486;2442
366;1.4040308999992703;2442
367;1.407473299999765;2442
368;1.410579699999289;2442
369;1.4150690999995277;2442
370;1.4187936999996964;2442
371;1.4230631000000358;2441
372;1.4274735999997574;2442
373;1.4319643999997425;2442
374;1.4359034999997675;2442
375;1.4394831999998132;2442
376;1.442562100000032;2442
377;1.4465698999993037;2442
378;1.4510791999991852;2443
379;1.4547764999997526;2443
380;1.4588032999999996;2443
381;1.4624190999993516;2444
382;1.4670594999997775;2444
383;1.4715480999993815;2444
384;1.4760965999994369;2444
385;1.481051299999308;2445
386;1.4849334999998973;2445
387;1.4884696999997686;2445
388;1.4914497999998275;2446
389;1.4944416999996974;2446
390;1.4973332999998092;2446
391;1.50084169999991;2446
392;1.5047629000000597;2446
393;1.5087848999992275;2446
394;1.5123673999996754;2446
395;1.5156967999992048;2446
396;1.519803299999694;2446
397;1.5237925999999788;2446
398;1.5278103000000556;2446
399;1.531819899999391;2446
400;1.5357989999993151;2446
401;1.5397896999993463;2447
402;1.5434121999996933;2446
403;1.5465337999994517;2446
404;1.549587900000006;2447
405;1.5537877999995544;2447
406;1.5577888999996503;2446
407;1.5617681999992783;2446
408;1.5657760999993116;2446
409;1.5697677999996813;2447
410;1.573776899999757;2447
411;1.5778864999992948;2447
412;1.5812806999992972;2447
413;1.584481799999594;2447
414;1.5875916999993933;2447
415;1.5918509999992239;2448
416;1.595567200000005;2448
417;1.5983888000000661;2448
418;1.6016027999994549;2448
419;1.605800299999828;2448
420;1.6097840999991604;2448
421;1.6122989999994388;2447
422;1.6156943999994837;2448
423;1.6195860999996512;2448
424;1.623657699999967;2448
425;1.6274008999998841;2447
426;1.6303296999994927;2448
427;1.6338406999993822;2448
428;1.6378376999991815;2447
429;1.641835099999298;2447
430;1.6453334999996514;2448
431;1.6485599999996339;2448
432;1.6515881999994235;2448
433;1.65563899999961;2448
434;1.6595594999998866;2448
435;1.662342699999499;2448
436;1.6655372999994142;2448
437;1.669404499999473;2447
438;1.6734155999993163;2448
439;1.6773552999993626;2448
440;1.6804017999993448;2448
441;1.6837244999996983;2448
442;1.6878252999995311;2448
443;1.6917962999996234;2448
444;1.6953568999997515;2448
445;1.6987069999995583;2448
446;1.7028287999992244;2449
447;1.7068086999997831;2449
448;1.71079809999992;2449
449;1.7145849999997154;2449
450;1.7177252999999837;2449
451;1.7217831999996633;2449
452;1.725882400000046;2449
453;1.7296280999998999;2450
454;1.7338965999997527;2450
455;1.737870899999507;2450
456;1.741869299999962;2450
457;1.74468269999943;2451
458;1.7478066999992734;2451
459;1.7518483999992895;2451
460;1.7558684999994512;2451
461;1.7598794999994425;2452
462;1.76389029999973;2452
463;1.767747999999301;2452
464;1.7717962999995507;2452
465;1.7757410999993226;2452
466;1.7797239999999874;2452
467;1.7837817999998151;2453
468;1.7877788999994664;2453
469;1.7913874999994732;2453
470;1.7942990999999893;2453
471;1.7978872999992745;2454
472;1.8017224999994141;2454
473;1.8058120999994571;2453
474;1.8097047999999631;2454
475;1.8122634999999718;2454
476;1.8157420999996248;2454
477;1.819758699999511;2454
478;1.8237837999995463;2454
479;1.8277976999997918;2454
480;1.8316842999993241;2454
481;1.83555350000006;2454
482;1.8385404000000563;2454
483;1.8425979999992705;2453
484;1.8465927999995984;2453
485;1.8508068999999523;2453
486;1.8547806999995373;2453
487;1.8587772999999288;2453
488;1.8622068999993644;2453
489;1.866881499999181;2453
490;1.8708883999997852;2453
491;1.8748736999996254;2453
492;1.8783187999997608;2453
493;1.882901299999503;2454
494;1.8868386999993163;2454
495;1.8908593999994991;2454
496;1.89471229999981;2454
497;1.8987861999994493;2454
498;1.9027821999998196;2454
499;1.9068237999999837;2455
500;1.9108222999993814;2455
501;1.913620099999207;2455
502;1.9178886999998213;2455
503;1.9218353999995088;2455
504;1.9254829999999856;2456
505;1.9284451999992598;2456
506;1.9328992999999173;2456
507;1.936826299999666;2456
508;1.9406503000000157;2456
509;1.9444647999998779;2456
510;1.9477508999998463;2457
511;1.9517845999998826;2457
512;1.95583649999935;2456
513;1.9598647999991954;2457
514;1.9638581999997768;2456
515;1.9677959000000556;2456
516;1.9717699999991964;2456
517;1.9758067999991908;2456
518;1.979731399999764;2456
519;1.9837801999992735;2457
520;1.9877794999993057;2457
521;1.9917824999993172;2458
522;1.9953949999999168;2458
523;1.9998052999999345;2458
524;2.0034443999993528;2459
525;2.007823799999642;2459
526;2.011646999999357;2459
527;2.0158205999996426;2459
528;2.019405099999858;2459
529;2.023802899999282;2459
530;2.027800699999716;2459
531;2.031807499999559;2459
532;2.0353362999994715;2459
533;2.0388003999996727;2460
534;2.0427903999998307;2461
535;2.0467628999995213;2461
536;2.0507975000000442;2462
537;2.0547862999992503;2462
538;2.0587875999999596;2462
539;2.0623210999992807;2462
540;2.0657695999998396;2462
541;2.068737899999178;2462
542;2.0728466999999;2462
543;2.076782899999671;2463
544;2.080810799999199;2463
545;2.083731699999589;2463
546;2.08779179999965;2464
547;2.0918283999999403;2464
548;2.09540349999952;2464
549;2.099878899999567;2465
550;2.10357329999988;2465
551;2.1078187999992224;2465
552;2.1116241999998238;2466
553;2.115810799999963;2466
554;2.119819699999425;2466
555;2.12381539999933;2466
556;2.1278299999994488;2466
557;2.1303040999991936;2467
558;2.133609399999841;2467
559;2.136723499999789;2467
560;2.1408948999996937;2467
561;2.1447471999999834;2468
562;2.1472373999995398;2468
563;2.150761199999579;2468
564;2.154850599999918;2468
565;2.1588246999999683;2468
566;2.16236839999965;2468
567;2.165747399999418;2469
568;2.16876400000001;2469
569;2.1725861999993867;2469
570;2.1758445999994365;2470
571;2.178228699999636;2470
572;2.1816902999999;2470
573;2.1856619999998657;2470
574;2.1887197999994896;2470
575;2.192736199999672;2470
576;2.1966199999997116;2470
577;2.199706200000037;2471
578;2.2039092999993954;2471
579;2.2078656999992745;2471
580;2.2117106999994576;2472
581;2.2158282999998846;2472
582;2.219814999999471;2473
583;2.2237883999996484;2473
584;2.227488199999243;2473
585;2.2307581999994;2474
586;2.2348324999993565;2475
587;2.2387819999994463;2475
588;2.2428412999997818;2475
589;2.246761399999741;2475
590;2.250790999999481;2476
591;2.254780100000062;2476
592;2.2587965999991866;2476
593;2.261523699999998;2476
594;2.26458299999922;2477
595;2.268819799999619;2477
596;2.2727790999997524;2478
597;2.277382499999476;2478
598;2.2807657999992443;2477
599;2.2847618999994666;2478
600;2.2888308999999936;2478
601;2.2923659999996744;2478
602;2.295305399999961;2478
603;2.2987287999994805;2478
604;2.3017495999993116;2478
605;2.30475320000005;2478
606;2.3078513000000385;2477
607;2.3115577999997186;2478
608;2.3146860999995624;2478
609;2.318710900000042;2479
610;2.3225358999998207;2479
611;2.3266819999998916;2479
612;2.330656399999498;2480
613;2.3336638999999195;2480
614;2.3376533000000563;2480
615;2.3405779999993683;2480
616;2.343567599999915;2480
617;2.3464394999991782;2480
618;2.350843199999872;2481
619;2.3547925999992003;2482
620;2.358784099999866;2482
621;2.362282199999754;2482
622;2.366819299999406;2482
623;2.3708152999997765;2482
624;2.374778200000037;2483
625;2.378273399999671;2483
626;2.3817568999993455;2483
627;2.3858157999993637;2483
628;2.389798399999563;2483
629;2.393569999999272;2484
630;2.3967268999995213;2484
631;2.4008287999995446;2484
632;2.4048158999994484;2484
633;2.408765399999538;2484
634;2.4124893999996857;2485
635;2.4168119999994815;2485
636;2.4207731999995303;2485
637;2.424808099999609;2485
638;2.428408699999636;2485
639;2.4317799999998897;2485
640;2.435773799999879;2485
641;2.440005399999791;2485
642;2.4438664999997854;2486
643;2.446613399999478;2486
644;2.450918499999716;2487
645;2.4548730999995314;2487
646;2.4588724999994156;2488
647;2.462442699999883;2487
648;2.466921899999761;2487
649;2.470843399999467;2488
650;2.473616799999945;2488
651;2.4778696999992462;2488
652;2.4819171999997707;2488
653;2.4858526999996684;2489
654;2.489346899999873;2489
655;2.49226759999965;2489
656;2.495279699999628;2489
657;2.4988252999992255;2489
658;2.502861099999791;2489
659;2.5068906999995306;2489
660;2.5108330999992177;2489
661;2.5148423999999068;2489
662;2.5188270999997258;2489
663;2.5228079999997135;2489
664;2.526807199999894;2489
665;2.5297639000000345;2489
666;2.533843899999738;2489
667;2.5378093999997873;2490
668;2.5418005999999878;2490
669;2.5453930999992735;2490
670;2.549916099999791;2490
671;2.553869499999564;2490
672;2.557908299999326;2491
673;2.5615834000000177;2491
674;2.5657696999996915;2491
675;2.569761999999173;2491
676;2.573838899999828;2491
677;2.5778465999992477;2491
678;2.581779899999674;2491
679;2.5842642999996315;2492
680;2.587815799999589;2492
681;2.5918176999994103;2492
682;2.5954291999996713;2492
683;2.59834039999987;2492
684;2.6017503999992186;2493
685;2.6058218999996825;2493
686;2.6098119999996925;2493
687;2.6134478999993007;2492
688;2.6167946999994456;2493
689;2.6208406999994622;2493
690;2.62481519999983;2493
691;2.628482599999188;2493
692;2.6317661999992197;2493
693;2.6358481999996;2493
694;2.639803799999754;2493
695;2.643788399999721;2493
696;2.6467698999995264;2493
697;2.650848899999801;2493
698;2.6548252999991746;2494
699;2.6588122999992265;2494
700;2.6625907999996343;2494
701;2.6656053999995493;2494
702;2.669775800000025;2494
703;2.6738507000000027;2494
704;2.6773687999993854;2494
705;2.680672099999356;2493
706;2.6847212999991825;2494
707;2.6887165999996796;2494
708;2.6926696000000447;2493
709;2.696535899999617;2493
710;2.6997819999996864;2493
711;2.7037615999997797;2494
712;2.707840799999758;2493
713;2.7113940999997794;2493
714;2.7145597999997335;2493
715;2.7184400999994978;2493
716;2.721618199999284;2493
717;2.7254380999993373;2493
718;2.7293825999995533;2493
719;2.732792399999198;2493
720;2.7368352999992567;2492
