;time;amplitude
0;0.002395799999248993;2442
1;0.005414099999143218;2443
2;0.008695499999703316;2443
3;0.011699999999109423;2443
4;0.0157601999999315;2444
5;0.019514199999321136;2445
6;0.022752199999558798;2446
7;0.026769299999614304;2446
8;0.03056739999919955;2447
9;0.03376659999958065;2447
10;0.037770699999782664;2448
11;0.04174739999962185;2448
12;0.04475379999985307;2448
13;0.04753869999967719;2448
14;0.050552499999866995;2449
15;0.053557599999294325;2449
16;0.0564870999996856;2449
17;0.059705799999392184;2450
18;0.0627409999997326;2450
19;0.0657030999991548;2450
20;0.0687393999996857;2450
21;0.0716454999992493;2450
22;0.07566359999964334;2451
23;0.07869339999979275;2452
24;0.08270179999999527;2452
25;0.08560949999991863;2453
26;0.08870979999937845;2453
27;0.09173479999935807;2453
28;0.09556929999962449;2454
29;0.09868319999986852;2454
30;0.10249579999981506;2454
31;0.10561439999946742;2455
32;0.1085678999997981;2456
33;0.11258639999959996;2456
34;0.11557949999951234;2457
35;0.11857689999942522;2457
36;0.12171879999914381;2458
37;0.1257183999996414;2458
38;0.12972239999999147;2458
39;0.1327259999998205;2459
40;0.13672829999995884;2459
41;0.13969469999938156;2460
42;0.14272579999942536;2461
43;0.14675959999931365;2461
44;0.15072699999927863;2461
45;0.15360489999966376;2461
46;0.1563429999996515;2462
47;0.15935519999948156;2462
48;0.1623818999996729;2463
49;0.16538019999916287;2463
50;0.16873669999949925;2463
51;0.17284039999958623;2463
52;0.17583599999943544;2464
53;0.1788619999997536;2464
54;0.18191079999996873;2464
55;0.1859701999992467;2465
56;0.18991019999975833;2465
57;0.19377799999983836;2465
58;0.1978142999996635;2466
59;0.20183739999993122;2466
60;0.20571209999980056;2467
61;0.2097840999995242;2467
62;0.21266949999971985;2467
63;0.21581409999998868;2468
64;0.21946359999947163;2468
65;0.22285239999928308;2469
66;0.22685579999961192;2470
67;0.23096679999980552;2470
68;0.2345447999996395;2470
69;0.237922699999217;2470
70;0.24199339999995573;2471
71;0.24598059999971156;2472
72;0.2500661999993099;2472
73;0.2536514999992505;2473
74;0.2566635999992286;2473
75;0.2598374999997759;2474
76;0.26278309999997873;2474
77;0.2665787999994791;2474
78;0.26946009999937814;2475
79;0.2724211999993713;2475
80;0.27540849999968486;2475
81;0.278352299999824;2475
82;0.28172819999963394;2476
83;0.28580779999992956;2476
84;0.2885028999999122;2476
85;0.29180449999967095;2476
86;0.2958506999993915;2476
87;0.2998825999993642;2477
88;0.30338819999997213;2477
89;0.30789479999930336;2478
90;0.31188549999933457;2478
91;0.31588339999962045;2478
92;0.3194631999995181;2478
93;0.3226361999995788;2478
94;0.3256484999992608;2478
95;0.3294852999997602;2479
96;0.3324098999992202;2479
97;0.33570049999980256;2479
98;0.338497699999607;2479
99;0.34148349999941274;2480
100;0.3445553999999902;2481
101;0.3474856999991971;2481
102;0.35048419999930047;2482
103;0.35340479999922536;2482
104;0.3564816999996765;2482
105;0.3594576999994388;2483
106;0.3624785999991218;2483
107;0.36552499999925203;2483
108;0.368576299999404;2483
109;0.3714873999997508;2483
110;0.3744868999992832;2484
111;0.3773756999999023;2484
112;0.3803080999996382;2484
113;0.38326059999963036;2484
114;0.38649459999942337;2484
115;0.3894596999998612;2485
116;0.39225899999928515;2485
117;0.3942306999997527;2485
118;0.39726769999924727;2485
119;0.40024239999911515;2485
120;0.4022795999999289;2486
121;0.40555959999983315;2486
122;0.4084955999996964;2486
123;0.41145589999996446;2486
124;0.41446149999956106;2486
125;0.417487999999139;2486
126;0.4204320999997435;2486
127;0.42325739999978396;2487
128;0.4264636999996583;2487
129;0.4294114999993326;2487
130;0.43244379999941884;2487
131;0.4354678999998214;2488
132;0.43835959999978513;2488
133;0.44145489999937126;2488
134;0.44447049999962474;2489
135;0.44745829999919806;2489
136;0.45048399999996036;2489
137;0.45340629999918747;2489
138;0.4564204999996946;2489
139;0.45942789999935485;2490
140;0.46242349999920407;2490
141;0.465422999999646;2490
142;0.46852749999925436;2490
143;0.47152509999978065;2490
144;0.4745320999991236;2490
145;0.47753169999941747;2490
146;0.48053129999971134;2491
147;0.4835278999998991;2491
148;0.48629579999942507;2491
149;0.4892495999993116;2491
150;0.4922543999991831;2492
151;0.4952518999998574;2492
152;0.49859379999998055;2491
153;0.5015278999999282;2492
154;0.5044239999997444;2492
155;0.5074991999999838;2492
156;0.5105007999991358;2492
157;0.5135032999996838;2493
158;0.5165277999994942;2493
159;0.5192534999996496;2493
160;0.5223978999993051;2493
161;0.5253997999998319;2493
162;0.5285080999992715;2493
163;0.53146629999992;2493
164;0.53441599999951;2493
165;0.5373959999997169;2494
166;0.5404269999999087;2494
167;0.5434165999995457;2494
168;0.5463992999993934;2494
169;0.5493860999995377;2495
170;0.5526959999997416;2495
171;0.5570732999995016;2495
172;0.5618223999999827;2495
173;0.5657267999995383;2495
174;0.5698232999993706;2496
175;0.574055899999621;2496
176;0.577846999999565;2496
177;0.5822023999999146;2496
178;0.5866093999993609;2496
179;0.5896316999996998;2496
180;0.5940510999998878;2496
181;0.5974838999991334;2497
182;0.6004745999998704;2497
183;0.6044440999994549;2497
184;0.6073517999993783;2497
185;0.6103580999997575;2497
186;0.6137657999997828;2497
187;0.6178444999995918;2497
188;0.6206947999999102;2498
189;0.6248438999991777;2497
190;0.6288468999991892;2498
191;0.6328333999999813;2498
192;0.6362698999992062;2498
193;0.6398301999997784;2497
194;0.6433604999992895;2497
195;0.6465635999993538;2498
196;0.649555799999689;2498
197;0.6523217999992994;2498
198;0.6553565999993225;2498
199;0.6582863999992696;2498
200;0.6613604999993186;2498
201;0.6644017999997232;2497
202;0.667432899999767;2498
203;0.6705320999999458;2498
204;0.6735376999995424;2498
205;0.676528199999666;2498
206;0.6795251999992615;2498
207;0.6825286999992386;2498
208;0.6854199999997945;2498
209;0.6885270999991917;2498
210;0.6915303999994649;2498
211;0.6945295999994414;2498
212;0.6975294999992911;2498
213;0.7005273999993733;2498
214;0.7035341999999218;2498
215;0.7063043999996808;2498
216;0.7092636999996103;2498
217;0.7112246999995477;2499
218;0.7132147999991503;2499
219;0.7151950999996188;2499
220;0.7184896999997363;2499
221;0.7212054999999964;2499
222;0.7245046999996703;2499
223;0.7274953999994977;2499
224;0.7305345999993733;2499
225;0.7335233999992852;2499
226;0.7362260999998398;2499
227;0.739503999999215;2499
228;0.742509899999277;2499
229;0.7455080999998245;2499
230;0.7484790999997131;2498
231;0.7514259999998103;2498
232;0.754408699999658;2498
233;0.7574022999997396;2498
234;0.7603817999997773;2498
235;0.7633890999995856;2498
236;0.7664238999996087;2498
237;0.769235399999161;2498
238;0.7725265999997646;2498
239;0.7755236999992121;2498
240;0.7785425999991276;2498
241;0.7815301999999065;2498
242;0.7842435999991721;2497
243;0.7875315999999657;2497
244;0.7905258999999205;2497
245;0.793522099999791;2497
246;0.7965192999999999;2498
247;0.7992810999994617;2498
248;0.8022572999998374;2498
249;0.8055259999991904;2498
250;0.8085402999995495;2498
251;0.8115191999995659;2498
252;0.8145635999999286;2498
253;0.8175221999999849;2498
254;0.8205370999994557;2498
255;0.8235201999996207;2499
256;0.826529599999958;2499
257;0.8295457999993232;2499
258;0.8325370999991719;2498
259;0.835386899999321;2498
260;0.8385362999997596;2499
261;0.8415085999995426;2498
262;0.8445003999995606;2498
263;0.8475069999994957;2498
264;0.8505241999991995;2498
265;0.8534495999992942;2498
266;0.8563854999993055;2498
267;0.859409499999856;2498
268;0.8622330999996848;2498
269;0.865398599999935;2498
270;0.8683918999995512;2498
271;0.8715277999999671;2498
272;0.8745257999999012;2497
273;0.8774992999997266;2498
274;0.8805317999995168;2497
275;0.8835231999992175;2498
276;0.8865282999995543;2498
277;0.8895305999994889;2497
278;0.8925262999991901;2498
279;0.8955247999992935;2498
280;0.8985267999996722;2498
281;0.9015259999996488;2498
282;0.9045192999992651;2498
283;0.9075267999996868;2498
284;0.9101536999996824;2498
285;0.9134294999994381;2498
286;0.9163089999992735;2498
287;0.919270499999584;2498
288;0.9222941999996692;2498
289;0.9251785999995263;2498
290;0.9273003999996945;2499
291;0.9305099999992308;2499
292;0.9335995999999795;2499
293;0.9363179999991189;2499
294;0.939365799999905;2499
295;0.9423995999995896;2498
296;0.9453646999991179;2498
297;0.9484157999995659;2498
298;0.9514078999991398;2498
299;0.9544504999994388;2498
300;0.9572677999994994;2498
301;0.9602770999999848;2498
302;0.9634062999994057;2498
303;0.966393199999402;2498
304;0.9692474999992555;2497
305;0.9723973000000115;2497
306;0.9752838999993401;2497
307;0.97839809999914;2498
308;0.9813956999996662;2498
309;0.9843934999998964;2498
310;0.9873974999991333;2498
311;0.9904351999994105;2498
312;0.993402099999912;2498
313;0.9964209999998275;2498
314;0.999440899999172;2498
315;1.0022877999999764;2498
316;1.0054041999992478;2498
317;1.0084336999998413;2498
318;1.0114412999992055;2498
319;1.0144302999997308;2498
320;1.0174265999994532;2498
321;1.0204146999994919;2499
322;1.0234165999991092;2499
323;1.0264404999998078;2498
324;1.029501199999686;2498
325;1.0324663999999757;2498
326;1.0352231999995638;2499
327;1.037242299999889;2498
328;1.0403692999998384;2498
329;1.0431604999994306;2499
330;1.0463133999992351;2498
331;1.0493794999993042;2498
332;1.0522725999999238;2498
333;1.0554254999997283;2498
334;1.0585188999993989;2498
335;1.0613651999992726;2498
336;1.0644211999997424;2498
337;1.0674000999997588;2498
338;1.0705501999991611;2498
339;1.0733661999993274;2498
340;1.0763920999997936;2498
341;1.07952479999949;2497
342;1.08222669999941;2497
343;1.0853461999995488;2497
344;1.0884249999999156;2497
345;1.0914074999991499;2497
346;1.0944213999991916;2497
347;1.0974951999996847;2497
348;1.1004638999993404;2497
349;1.1034242999994603;2496
350;1.1065241999995123;2496
351;1.10942999999952;2496
352;1.1125326999999743;2496
353;1.1154238999997688;2497
354;1.118291699999645;2497
355;1.1214277999997648;2497
356;1.12442369999917;2497
357;1.1275486999993518;2497
358;1.1303492999995797;2497
359;1.1335596999997506;2498
360;1.1364318999994794;2498
361;1.1392052999999578;2498
362;1.1423252999993565;2498
363;1.145216299999447;2497
364;1.1482806999993045;2498
365;1.1513009999998758;2498
366;1.1533820999993623;2498
367;1.1568345999994563;2498
368;1.1607491999993726;2498
369;1.163326799999595;2499
370;1.1663387999997212;2498
371;1.1695185999997193;2498
372;1.1728667999996105;2499
373;1.1767914999991262;2499
374;1.1805174999999508;2499
375;1.1835020999997141;2499
376;1.186419399999977;2499
377;1.1892377999993187;2498
378;1.1922540999994453;2498
379;1.1955941999995048;2499
380;1.1984807999997429;2498
381;1.201587799999288;2498
382;1.2044743999995262;2498
383;1.2073106999996526;2498
384;1.2104610999995202;2498
385;1.213321299999734;2498
386;1.2164714999998978;2498
387;1.2192404999996143;2498
388;1.2221649999992223;2499
389;1.2243510999996943;2499
390;1.2271960999996736;2498
391;1.2302448999998887;2498
392;1.233386499999142;2498
393;1.2367034999997486;2497
394;1.2410922999997638;2498
395;1.2447546999992483;2498
396;1.2479763999999705;2498
397;1.251780399999916;2497
398;1.2554090999992695;2497
399;1.2583102999997209;2497
400;1.2612735999991855;2497
401;1.2643403999991278;2497
402;1.2679169999992155;2496
403;1.2714962999998534;2497
404;1.2746226999997816;2496
405;1.2774994999999763;2496
406;1.2803957999994964;2496
407;1.2835589999995136;2496
408;1.2862431999992623;2496
409;1.2894138999999996;2496
410;1.2923893999995926;2496
411;1.2951543999997739;2496
412;1.2984933999996429;2496
413;1.3013933999991423;2496
414;1.3044162999995024;2497
415;1.307421699999395;2497
416;1.3104396999997334;2497
417;1.3134118999996645;2497
418;1.3162162999997236;2496
419;1.3191612999999052;2496
420;1.3213026999992508;2496
421;1.3231664999993882;2497
422;1.3253344999993715;2496
423;1.3283325999991575;2497
424;1.3313413999994737;2497
425;1.3343361999995977;2497
426;1.3361950999997134;2497
427;1.338333199999397;2497
428;1.3413199999995413;2497
429;1.3441660999997112;2496
430;1.347331299999496;2496
431;1.350118699999257;2496
432;1.3537805999994816;2496
433;1.3573398999997153;2496
434;1.3604459999996834;2496
435;1.3632889999998952;2496
436;1.366284299999279;2496
437;1.3682278999995106;2496
438;1.3712572999993426;2496
439;1.3732411999999385;2496
440;1.3766705999996702;2495
441;1.3796523999999408;2495
442;1.3824406999992789;2495
443;1.3852470999991056;2494
444;1.3884527999998681;2494
445;1.3914107999999032;2495
446;1.3944086999999854;2495
447;1.3975496999992174;2494
448;1.4003499999998894;2494
449;1.4035129999992932;2494
450;1.4064457999993465;2494
451;1.4094052999998894;2494
452;1.412447799999427;2494
453;1.4154450999994879;2494
454;1.4182424999999057;2494
455;1.421433900000011;2494
456;1.4244256999991194;2494
457;1.4273331999993388;2494
458;1.4302782999993724;2493
459;1.4325076999994053;2493
460;1.4352577999998175;2493
461;1.4382621999993717;2493
462;1.4414517999994132;2493
463;1.444417099999555;2492
464;1.4474731999998767;2492
465;1.450457599999936;2493
466;1.4534781999991537;2493
467;1.4564458999993803;2493
468;1.459266399999251;2493
469;1.4624600999995891;2492
470;1.4655866999992213;2492
471;1.468406099999811;2492
472;1.4714683999991394;2492
473;1.4744253999997454;2492
474;1.4772933999993256;2491
475;1.4802967999994507;2491
476;1.4833351999996012;2491
477;1.4866308999999092;2491
478;1.489417599999797;2491
479;1.4925539999994726;2491
480;1.495544599999448;2491
481;1.498596099999304;2491
482;1.5015741999995953;2491
483;1.5043142999993506;2491
484;1.507542999999714;2490
485;1.5105460999993738;2491
486;1.5135454999999638;2491
487;1.5165785999997752;2491
488;1.5194379999993544;2490
489;1.5224413999994795;2490
490;1.5254454999994778;2489
491;1.5284475999997085;2489
492;1.5314929999995002;2489
493;1.5344195999996373;2489
494;1.5372734999991735;2489
495;1.5405858999993143;2489
496;1.5435507999991387;2489
497;1.546554799999285;2489
498;1.5495515999991767;2488
499;1.552282199999354;2488
500;1.5555483999996795;2488
501;1.558558799999446;2488
502;1.5615579999994225;2487
503;1.5645575999997163;2487
504;1.5675533999992695;2487
505;1.570413099999314;2486
506;1.573566999999457;2486
507;1.5765637999993487;2487
508;1.5795737999997073;2487
509;1.5825772999996843;2487
510;1.5853244999998424;2486
511;1.5883002999999007;2486
512;1.5913002999996024;2486
513;1.5943342999999004;2486
514;1.597545199999331;2485
515;1.6002788999994664;2485
516;1.603726899999856;2485
517;1.6065444999994725;2484
518;1.6095361999996385;2484
519;1.612538699999277;2483
520;1.6155206999992515;2483
521;1.6185374999995474;2483
522;1.6214969999991808;2483
523;1.6245446999992055;2482
524;1.6275359999999637;2482
525;1.6305673999995633;2482
526;1.633489799999552;2482
527;1.6365112999992562;2482
528;1.639436499999647;2482
529;1.6424527999997736;2481
530;1.6454212999997253;2481
531;1.6484498999998323;2481
532;1.6513973999999507;2480
533;1.6545600999997987;2480
534;1.657556399999521;2479
535;1.66055679999954;2479
536;1.6635621999994328;2479
537;1.6665542999999161;2479
538;1.6695669999999154;2479
539;1.6725622999992993;2479
540;1.675561999999445;2478
541;1.6783409999998185;2478
542;1.6815613999997368;2478
543;1.684566499999164;2478
544;1.687563699999373;2478
545;1.6905598999992435;2478
546;1.6935858999995617;2477
547;1.696351699999468;2477
548;1.6993211999997584;2477
549;1.7023621999996976;2476
550;1.7057062999992922;2476
551;1.7086810999999216;2476
552;1.7117148999996061;2476
553;1.7146848999991562;2475
554;1.7176797999991322;2475
555;1.7206216999993558;2475
556;1.7234307999997327;2474
557;1.726438999999118;2474
558;1.7294290999998339;2474
559;1.7324682999997094;2474
560;1.7352900999994745;2474
561;1.7384788999997909;2474
562;1.7414365999993606;2473
563;1.7444379999997182;2472
564;1.7474275999993552;2472
565;1.7504570999999487;2472
566;1.7534289999994144;2472
567;1.7563604999995732;2471
568;1.7594160999997257;2471
569;1.7624172999994698;2470
570;1.76543269999911;2470
571;1.7684676999997464;2469
572;1.771453799999108;2469
573;1.774456299999656;2469
574;1.7774593999993158;2468
575;1.780460499999208;2468
576;1.7834528999992472;2468
577;1.7864592999994784;2467
578;1.7904582999999548;2466
579;1.793465599999763;2466
580;1.7964582999993581;2466
581;1.7994521999999051;2466
582;1.8023053999995682;2465
583;1.805368699999235;2465
584;1.8083503999996537;2464
585;1.8113676999992094;2464
586;1.8143858999992517;2463
587;1.8176801999998133;2463
588;1.82060569999976;2463
589;1.824743799999851;2462
590;1.8276591999992888;2461
591;1.8306574999996883;2461
592;1.8348364999992555;2461
593;1.8374213999995845;2460
594;1.8408112999995865;2460
595;1.8448806999995213;2459
596;1.8488570999998046;2459
597;1.852433199999723;2458
598;1.8557141999999658;2458
599;1.8597442999998748;2457
600;1.8626367999995637;2457
601;1.8656605999995008;2457
602;1.8684352999998737;2456
603;1.8715355999993335;2456
604;1.8745274999992034;2455
605;1.8775942999991457;2455
606;1.880548699999963;2455
607;1.8835651999997935;2455
608;1.8865596999994523;2454
609;1.8895517999999356;2453
610;1.892548299999362;2453
611;1.8955682999994679;2453
612;1.8984307999999146;2452
613;1.9015449999997145;2452
614;1.904561499999545;2451
615;1.9075545999994574;2451
616;1.9105485999998564;2451
617;1.9133157999995092;2450
618;1.9162985999992088;2450
619;1.919364599999426;2449
620;1.922285899999224;2449
621;1.9258635999995022;2449
622;1.9294281999991654;2448
623;1.9327845999996498;2447
624;1.9365369999995892;2447
625;1.940864999999576;2446
626;1.9448758999997153;2446
627;1.9488720999997895;2445
628;1.9524323999994522;2444
629;1.9558198999993692;2444
630;1.9598653999992166;2443
631;1.962308799999846;2443
632;1.965907399999196;2443
633;1.9696917999999641;2442
634;1.9727113999997528;2441
635;1.9754722999996375;2441
636;1.9784494999994422;2441
637;1.9814212999999654;2440
638;1.9844066999994538;2440
639;1.9875631999993857;2439
640;1.9905535999996573;2439
641;1.993553599999359;2439
642;1.9965528999991875;2438
643;1.99955349999982;2437
644;2.0024114999996527;2437
645;2.005563699999584;2437
646;2.0082583999992494;2436
647;2.0115421999998944;2435
648;2.0145754999994097;2435
649;2.017553899999257;2434
650;2.020592399999259;2434
651;2.0233912999992754;2433
652;2.026333099999647;2433
653;2.029299699999683;2432
654;2.0323215999997046;2431
655;2.034623599999577;2431
656;2.037527499999669;2431
657;2.0405432999996265;2430
658;2.0435405999996874;2430
659;2.046545100000003;2429
660;2.0495814999994764;2428
661;2.052252899999985;2428
662;2.0555653999999777;2427
663;2.0585738999998284;2427
664;2.0614750999993703;2426
665;2.064574099999845;2426
666;2.0675666999995883;2425
667;2.0704149999992296;2425
668;2.073475499999404;2424
669;2.076467599999887;2424
670;2.079428599999119;2423
671;2.0824532999995427;2423
672;2.0853329999999914;2422
673;2.0884259999993446;2421
674;2.0915604999991046;2421
675;2.0945756999999503;2420
676;2.0975611999992907;2420
677;2.1005802999998195;2419
678;2.103577399999267;2419
679;2.1065842999996676;2417
680;2.109588199999962;2417
681;2.1125792999991972;2416
682;2.115559199999552;2415
683;2.1183844999995927;2415
684;2.1215628999998444;2415
685;2.1245821999991676;2415
686;2.127588499999547;2414
687;2.1305506999997306;2414
688;2.133330799999385;2413
689;2.136390599999686;2413
690;2.1393299999999726;2412
691;2.1423243999997794;2411
692;2.1458715999997366;2411
693;2.1496536999993623;2410
694;2.153779199999917;2410
695;2.1578136999996786;2410
696;2.1617914999997083;2409
697;2.1654021999993347;2408
698;2.168184399999518;2408
699;2.170441899999787;2407
700;2.1738603999992847;2406
701;2.177867599999445;2406
702;2.181860400000005;2406
703;2.1854346000000078;2405
704;2.1886711999995896;2405
705;2.1916941999998016;2404
706;2.19469509999999;2403
707;2.198416699999143;2402
708;2.201528199999302;2401
709;2.205903699999908;2401
710;2.2098825999992187;2400
711;2.2138804999995045;2399
712;2.2179073999996035;2398
713;2.221876699999484;2397
714;2.2259128999994573;2397
715;2.2299183999994057;2396
716;2.2339047999994364;2395
717;2.2379039999996166;2395
