;time;amplitude
0;0.008499200000187557;2416
1;0.013522700000066834;2414
2;0.018180100000336097;2413
3;0.02302510000026814;2411
4;0.028574899999966874;2410
5;0.03349420000040482;2408
6;0.03792090000024473;2406
7;0.0419424000001527;2405
8;0.045531900000241876;2404
9;0.050202700000227196;2403
10;0.054777500000000146;2402
11;0.057951000000230124;2401
12;0.0615867999999864;2400
13;0.06557520000023942;2398
14;0.0695623000001433;2397
15;0.07377420000011625;2396
16;0.07774349999999686;2395
17;0.08173759999999675;2394
18;0.0857148000000052;2393
19;0.08833370000002105;2392
20;0.0918866000001799;2391
21;0.09596540000029563;2390
22;0.10001480000028096;2389
23;0.10393130000011297;2387
24;0.10760210000034931;2387
25;0.1115961000000425;2386
26;0.11559180000040215;2385
27;0.11959990000013931;2384
28;0.1227710000002844;2382
29;0.12676330000022062;2382
30;0.1307878000002347;2380
31;0.13481590000037613;2379
32;0.13853570000037507;2379
33;0.14298390000021755;2377
34;0.14682140000013533;2377
35;0.1508230000004005;2375
36;0.15464090000023134;2373
37;0.1573038000001361;2373
38;0.16039369999998598;2372
39;0.16344700000036028;2372
40;0.16643410000006043;2371
41;0.16947330000039074;2370
42;0.1722060000001875;2370
43;0.1753993000002083;2369
44;0.17840150000029098;2368
45;0.18140690000018367;2367
46;0.18440099999997983;2366
47;0.18731930000012653;2366
48;0.19040810000024067;2365
49;0.1939233000002787;2364
50;0.19793210000034378;2363
51;0.20192880000013247;2362
52;0.20533109999996668;2361
53;0.20877070000005915;2360
54;0.21256350000021484;2359
55;0.21557830000028844;2359
56;0.2183898000002955;2358
57;0.22143560000040452;2358
58;0.22456210000018473;2357
59;0.2275920000001861;2357
60;0.23053680000020904;2357
61;0.23358690000031856;2356
62;0.23654320000014195;2355
63;0.23964280000018334;2354
64;0.24253650000036941;2353
65;0.24550950000002558;2353
66;0.2485103000003619;2352
67;0.25150840000014796;2351
68;0.25432530000034603;2350
69;0.25750420000031227;2350
70;0.2605140000000574;2349
71;0.26353910000034375;2348
72;0.2662075000002915;2347
73;0.2692649000000529;2346
74;0.2722606000002088;2345
75;0.2753255000002355;2345
76;0.27831160000005184;2344
77;0.28129130000024816;2343
78;0.28491440000016155;2343
79;0.288338400000157;2342
80;0.2915722000002461;2341
81;0.2945204000002377;2340
82;0.29737880000038786;2339
83;0.3005276000003505;2338
84;0.30351870000004055;2338
85;0.30641960000002655;2337
86;0.30949710000004416;2337
87;0.31252949999998236;2337
88;0.31553900000017165;2336
89;0.31850270000040837;2336
90;0.32117580000021917;2335
91;0.3245324000004075;2334
92;0.3275175000003401;2334
93;0.3302276000003985;2334
94;0.3335316000002422;2334
95;0.3365302000001975;2333
96;0.339545199999975;2333
97;0.3425412999999935;2333
98;0.34541040000021894;2332
99;0.3485201000003144;2332
100;0.35150900000007823;2332
101;0.3543155000002116;2331
102;0.3575175000000854;2331
103;0.3605225999999675;2330
104;0.36353390000022046;2330
105;0.3665074000000459;2329
106;0.3694956000003913;2328
107;0.3724989000002097;2328
108;0.37534110000024157;2327
109;0.37825169999996433;2327
110;0.38136590000021897;2325
111;0.38436270000011064;2325
112;0.38728020000007746;2324
113;0.3904464000002008;2324
114;0.3949474000000919;2323
115;0.3988643000002412;2323
116;0.4028041999999914;2322
117;0.40680410000004485;2321
118;0.41076810000004116;2321
119;0.4147726999999577;2320
120;0.41876060000004145;2320
121;0.42122840000001815;2320
122;0.42450890000009167;2319
123;0.42770240000027115;2318
124;0.4306866000001719;2318
125;0.4335411000001841;2318
126;0.43653730000005453;2318
127;0.4395668000001933;2317
128;0.44254829999999856;2317
129;0.44535190000033253;2317
130;0.44852540000010777;2316
131;0.45157990000006976;2316
132;0.45418400000016845;2317
133;0.45750390000011976;2317
134;0.4605199000002358;2316
135;0.46351370000002134;2316
136;0.46652650000032736;2316
137;0.4692033999999694;2316
138;0.4725091000000248;2316
139;0.4755078000002868;2316
140;0.4785052000001997;2315
141;0.4815118000001348;2315
142;0.48440800000025774;2314
143;0.487275899999986;2314
144;0.48934630000030666;2314
145;0.49246480000010706;2314
146;0.49547660000007454;2314
147;0.4984733999999662;2314
148;0.5014966000003369;2314
149;0.5042591000001266;2313
150;0.5074649000002864;2313
151;0.5105137000000468;2313
152;0.5135136000003513;2313
153;0.5161997000000156;2312
154;0.5195158000001356;2312
155;0.5225038000003224;2312
156;0.5254819000001589;2312
157;0.52850269999999;2311
158;0.5315193000001273;2311
159;0.5341846000001169;2311
160;0.5377026000001024;2311
161;0.5407291000001351;2310
162;0.5447355999999672;2310
163;0.548703000000387;2310
164;0.5517302000002928;2310
165;0.5554914000003919;2310
166;0.5583389000003081;2310
167;0.5613587000002553;2310
168;0.5643562000000202;2310
169;0.5675422000003891;2309
170;0.5702338000000964;2310
171;0.5724970999999641;2310
172;0.5754808000001503;2310
173;0.5784707000002527;2310
174;0.5814987000003384;2309
175;0.5844059000000925;2309
176;0.587633900000128;2309
177;0.590439200000219;2309
178;0.5934964000002765;2309
179;0.5965178999999807;2309
180;0.5994993000003888;2309
181;0.602503600000091;2309
182;0.6054941000002145;2309
183;0.6084952999999587;2310
184;0.6114991000004011;2310
185;0.6144835000000057;2311
186;0.617500199999995;2311
187;0.6201289000000543;2311
188;0.622366200000215;2311
189;0.6253523000000314;2311
190;0.6283609000001888;2311
191;0.6315386999999646;2311
192;0.6345366000000467;2311
193;0.6373806999999942;2312
194;0.6406368000002658;2312
195;0.644676200000049;2312
196;0.6485544000001937;2312
197;0.6525405000002138;2313
198;0.6567810999999892;2313
199;0.6606145000000652;2313
200;0.6635838000001968;2313
201;0.6664127000003646;2313
202;0.6693947000003391;2314
203;0.672220500000094;2314
204;0.6758367000002181;2314
205;0.6797977999999603;2314
206;0.6837864000003719;2314
207;0.6879039000000375;2314
208;0.6917521000000306;2314
209;0.6957905000003848;2315
210;0.6997961000001851;2315
211;0.7038078000000496;2315
212;0.7062464000000546;2315
213;0.7095067000000199;2315
214;0.7124892000001637;2315
215;0.715521400000398;2315
216;0.7185409000003347;2315
217;0.7212677000002259;2315
218;0.7243647000000237;2316
219;0.727517600000283;2316
220;0.7305684000002657;2317
221;0.7335594999999557;2317
222;0.7365060000001904;2318
223;0.7395292999999583;2318
224;0.7425145000001976;2318
225;0.7455211999999847;2319
226;0.748418700000002;2319
227;0.75133360000018;2319
228;0.7543402000001151;2320
229;0.7575255000001562;2320
230;0.7605508000001464;2321
231;0.7635463999999956;2322
232;0.7665586000002804;2322
233;0.7695676000003004;2323
234;0.7725325999999768;2323
235;0.7755431000000499;2323
236;0.7785625000001346;2324
237;0.7815038000003369;2324
238;0.7845056000001023;2325
239;0.7874711000004027;2325
240;0.7905216000003747;2326
241;0.7934907000003477;2326
242;0.796494800000346;2326
243;0.7995229000002837;2327
244;0.8023204000000987;2327
245;0.8053168000001278;2327
246;0.8084983000003376;2327
247;0.8113594000001285;2327
248;0.8143208999999842;2328
249;0.8172767000000931;2328
250;0.820325000000139;2328
251;0.823953800000254;2328
252;0.8276435000002493;2329
253;0.8319175000001451;2328
254;0.8357637000003706;2328
255;0.8397361000002093;2329
256;0.8437340000000404;2329
257;0.8477824000001419;2330
258;0.8517994000003455;2330
259;0.8557422000003498;2331
260;0.8596532999999908;2331
261;0.8625650000003589;2332
262;0.8665617999999995;2333
263;0.8697000000001935;2333
264;0.8724197000001368;2334
265;0.8754321000001255;2334
266;0.8783190000003742;2334
267;0.8813663000000815;2335
268;0.8843604000003324;2336
269;0.8875763000000916;2336
270;0.8918837999999596;2338
271;0.8958956000001308;2338
272;0.8997855000002346;2339
273;0.9037914000000455;2340
274;0.9067442000000483;2341
275;0.909563100000014;2342
276;0.91255480000018;2343
277;0.9156033000003845;2343
278;0.9184129000000212;2344
279;0.9211794000002556;2344
280;0.924161500000082;2345
281;0.9261228000000301;2346
282;0.9293065000001661;2346
283;0.9323269999999866;2348
284;0.9359185000002981;2348
285;0.9398909000001368;2348
286;0.9437740000003032;2350
287;0.947822300000098;2350
288;0.9517992000000959;2351
289;0.9557730000001357;2352
290;0.9597947000002023;2353
291;0.9637797000000319;2354
292;0.9677990000000136;2355
293;0.9713398000003508;2356
294;0.9747202000003199;2357
295;0.9788029999999708;2358
296;0.9827981000003092;2359
297;0.9868083999999726;2360
298;0.9897892000003594;2361
299;0.9937795000000733;2362
300;0.9977889000001596;2363
301;1.001795800000309;2364
302;1.0057785000003605;2365
303;1.009781500000372;2366
304;1.01379900000029;2367
305;1.0178007000004072;2368
306;1.0213140000000749;2369
307;1.0247338000003765;2370
308;1.0287905000000137;2371
309;1.032307700000274;2371
310;1.0352233000003253;2372
311;1.0382807000000867;2373
312;1.0412280000000464;2374
313;1.0442243000002236;2374
314;1.0477451000001565;2375
315;1.0507096000001184;2376
316;1.053659200000311;2376
317;1.056434800000261;2376
318;1.0593410999999833;2376
319;1.0623293000003287;2377
320;1.0654058000000077;2377
321;1.068357300000116;2377
322;1.071211100000255;2378
323;1.0745124000000033;2379
324;1.077526100000341;2379
325;1.0805089000000407;2380
326;1.083511400000134;2380
327;1.0865124000001742;2381
328;1.089486400000169;2381
329;1.0924862000001667;2382
330;1.0954663000002256;2383
331;1.0984872000003634;2383
332;1.101462800000263;2384
333;1.1042795000003025;2386
334;1.1074871000000712;2386
335;1.1105443000001287;2387
336;1.1135302000002412;2387
337;1.1165129000000888;2388
338;1.1195230000002994;2389
339;1.1225296000002345;2389
340;1.1255310999999892;2390
341;1.128502600000047;2391
342;1.1315137999999934;2392
343;1.134533900000406;2393
344;1.1372615000000224;2394
345;1.1404068000001644;2395
346;1.1434993000002578;2395
347;1.1464819000002535;2396
348;1.1495021000000634;2397
349;1.1523003000002063;2398
350;1.15554850000035;2398
351;1.1584528000003047;2399
352;1.1615177000003314;2400
353;1.1648561000001791;2401
354;1.168865900000128;2402
355;1.1722995000000083;2403
356;1.1752806000004057;2404
357;1.1787296000002243;2405
358;1.1817315000002964;2406
359;1.1848514000002979;2407
360;1.1884278000002269;2408
361;1.1916095999999925;2409
362;1.1945780000000923;2410
363;1.1975815000000694;2411
364;1.2005785000001197;2412
365;1.2036576000000423;2413
366;1.2065635000003567;2414
367;1.2095171000000846;2415
368;1.2125036000002183;2417
369;1.2155799000001934;2418
370;1.2185295000003862;2419
371;1.2212799000003542;2420
372;1.2245336000000862;2421
373;1.2275116000000708;2422
374;1.2304959000002782;2422
375;1.2334952999999587;2423
376;1.2362135000003036;2424
377;1.2395314000000326;2425
378;1.2423948000000564;2425
379;1.2455299000002924;2426
380;1.2485546000002614;2427
381;1.2515192000000752;2428
382;1.2543321000002834;2428
383;1.2578369000002567;2429
384;1.2619382000002588;2431
385;1.2658612000000176;2432
386;1.2702467000003708;2433
387;1.275246100000004;2433
388;1.2787296999999853;2435
389;1.2831841000001987;2436
390;1.2881888000001709;2437
391;1.2932036000001972;2438
392;1.2967741000002206;2439
393;1.3011036000002605;2440
394;1.3044423000001188;2441
395;1.3090697000002365;2442
396;1.3129046000003655;2443
397;1.3169206000002305;2444
398;1.3211905000002844;2446
399;1.3260066000002553;2447
400;1.3300375000003442;2448
401;1.3334794000002148;2449
402;1.337011000000075;2449
403;1.3410068000002866;2450
404;1.345130700000027;2451
405;1.3490615000000616;2453
406;1.3529497000004085;2454
407;1.3570912000000135;2455
408;1.360856799999965;2455
409;1.36501300000009;2456
410;1.368452800000341;2457
411;1.3714616000002025;2459
412;1.3750402000000577;2459
413;1.3800880000003417;2461
414;1.383951100000104;2462
415;1.3879243000001225;2463
416;1.392026800000167;2464
417;1.3960022000001118;2465
418;1.4000591000003624;2466
419;1.4039192000000185;2467
420;1.408079600000292;2468
421;1.4130981000002976;2470
422;1.4167707000001428;2471
423;1.4211812000003192;2472
424;1.4259963000004063;2474
425;1.4300293999999667;2475
426;1.4340718000003108;2476
427;1.4378875000002154;2477
428;1.4419824999999946;2478
429;1.4460078000001886;2479
430;1.4498459999999795;2480
431;1.4541578000003028;2481
432;1.4578536000003623;2482
433;1.4621114000001398;2483
434;1.465842000000066;2484
435;1.4701121000002786;2485
436;1.4735724000001937;2486
437;1.4765770000003613;2487
438;1.479790000000321;2488
439;1.4840985000000728;2489
440;1.4876154000003226;2490
441;1.4907514000001356;2490
442;1.4949435000003177;2491
443;1.4989806000003227;2491
444;1.5029004000002715;2492
445;1.5057206999999835;2493
446;1.5099902000001748;2494
447;1.5139662000001408;2494
448;1.5177131000000372;2496
449;1.520981500000289;2497
450;1.5248953000000256;2497
451;1.5289004999999634;2499
452;1.5329600000000028;2499
453;1.5364496000001964;2500
454;1.5394415000000663;2500
455;1.5427189000001817;2500
456;1.5470195000002605;2501
457;1.5509500000002845;2502
458;1.5544827000003352;2503
459;1.5580223000001752;2504
460;1.561761899999965;2504
461;1.564746500000183;2505
462;1.567710100000113;2506
463;1.5706905000001825;2506
464;1.5736878000002434;2507
465;1.5775720000001456;2508
466;1.5815824999999677;2509
467;1.584725900000194;2509
468;1.5886167000003297;2510
469;1.5914590000002136;2510
470;1.5959121000000778;2510
471;1.5999305000000277;2511
472;1.6040982000004078;2511
473;1.6078480999999556;2513
474;1.6118925000000672;2513
475;1.6159615999999914;2514
476;1.619837500000358;2514
477;1.622643700000026;2515
478;1.6256419000001188;2515
479;1.6299998000004052;2515
480;1.6339477000001352;2516
481;1.6377816000003804;2517
482;1.641002700000172;2517
483;1.644948000000113;2517
484;1.6485710000001745;2518
485;1.652996300000268;2518
486;1.6569856000000982;2519
487;1.6610591000003296;2520
488;1.6648194000003969;2520
489;1.6687865000003512;2520
490;1.6715865000001031;2521
491;1.6760904000002483;2521
492;1.6799725000000763;2521
493;1.6834966999999779;2521
494;1.68639340000027;2522
495;1.6894390000002204;2522
496;1.6929306000001816;2522
497;1.6969701000002715;2523
498;1.7010517000003347;2523
499;1.7043922000002567;2523
500;1.7072959000001902;2524
501;1.7107923000003211;2524
502;1.7137127000000874;2525
503;1.7177083000001403;2525
504;1.721568500000103;2525
505;1.724511700000221;2525
506;1.7275465000002441;2525
507;1.731613400000242;2526
508;1.734474400000181;2526
509;1.7373572000001332;2526
510;1.7408862000002046;2527
511;1.7450015000003987;2527
512;1.7488278000000719;2527
513;1.7529606000002786;2527
514;1.7554489000003741;2528
515;1.7588642000000618;2528
516;1.7629605000001902;2528
517;1.7670971000002282;2528
518;1.7707989000000453;2528
519;1.7750749000001633;2529
520;1.779084100000091;2529
521;1.7830784000002495;2529
522;1.7870096999999987;2529
523;1.7910925999999563;2529
524;1.7960745000000315;2529
525;1.7999696000001677;2529
526;1.8038986000001387;2529
527;1.8074874000003547;2529
528;1.810445300000083;2529
529;1.8134406000003764;2529
530;1.8166187000001628;2529
531;1.8196149000000332;2529
532;1.8227003000001787;2529
533;1.8256930000002285;2529
534;1.8286943000002793;2528
535;1.831614300000183;2529
536;1.8345729000002393;2529
537;1.8374132000003556;2529
538;1.8406181000000288;2529
539;1.843445900000006;2529
540;1.8466267000003427;2529
541;1.8494727000002058;2528
542;1.8526636000001417;2528
543;1.8557010000004084;2528
544;1.858698000000004;2528
545;1.8615810000001147;2528
546;1.8645322000002125;2528
547;1.8676227000000836;2528
548;1.8706427000001895;2529
549;1.8736628000001474;2528
550;1.8766082000001916;2528
551;1.8806965000003402;2529
552;1.8834670999999616;2528
553;1.8866124999999556;2528
554;1.8896311000003152;2528
555;1.8924610000003668;2528
556;1.895466899999974;2528
557;1.89862230000017;2528
558;1.9016092000001663;2528
559;1.9043821000000207;2528
560;1.9079169000001457;2528
561;1.911926400000084;2528
562;1.9158651000002465;2527
563;1.9200018000001364;2527
564;1.9241209000001618;2527
565;1.9280696000000717;2526
566;1.9322040000001834;2526
567;1.9356375000002117;2525
568;1.9402257000001555;2526
569;1.9441930000002685;2525
570;1.9482153000003564;2525
571;1.9532803000001877;2525
572;1.9571051000002626;2524
573;1.9612051000003703;2525
574;1.9646927000003416;2524
575;1.9692605000000185;2524
576;1.9730638000000909;2524
577;1.9766594000002442;2523
578;1.981254700000136;2522
579;1.9850706000001992;2522
580;1.9885950000002595;2521
581;1.9931784000000334;2521
582;1.9971211000001858;2521
583;2.0012095000001864;2521
584;2.00460350000003;2521
585;2.0078020000000834;2521
586;2.0122416000003795;2521
587;2.017220400000042;2520
588;2.021537900000112;2519
589;2.0243404000002556;2519
590;2.0275433000001613;2518
591;2.030497000000196;2518
592;2.035001900000225;2517
593;2.0383993000000373;2516
594;2.0417710000001534;2516
595;2.044657400000233;2516
596;2.0476708999999573;2516
597;2.0506451999999626;2516
598;2.053827900000215;2516
599;2.0567386000002443;2515
600;2.059525399999984;2515
601;2.0625370000002476;2515
602;2.06539150000026;2514
603;2.0683959000002687;2514
604;2.071436100000028;2514
605;2.0746117000003323;2513
606;2.0776168000002144;2513
607;2.0806212000002233;2512
608;2.0836090000002514;2512
609;2.0869150000003174;2512
610;2.090957100000196;2511
611;2.0949539000002915;2511
612;2.0989643000002616;2510
613;2.103031000000101;2510
614;2.107307700000092;2509
615;2.1124157000003834;2508
616;2.1174737999999707;2507
617;2.1218744000002516;2507
618;2.1262461000001167;2506
619;2.1312120000002324;2506
620;2.1346106000000873;2505
621;2.1385724000001574;2504
622;2.1416440000002694;2504
623;2.1460707999999613;2503
624;2.1497817000004034;2502
625;2.1541403000001083;2502
626;2.157935600000201;2501
627;2.161981000000196;2500
628;2.1657116000001224;2500
629;2.169949600000109;2499
630;2.172887400000036;2499
631;2.1769408000000112;2498
632;2.1809887000003982;2498
633;2.183374200000344;2497
634;2.1864341000000422;2497
635;2.1899648000003253;2496
636;2.193960800000241;2495
637;2.1979235000003428;2494
638;2.2019428000003245;2493
639;2.2059072000001834;2493
640;2.209943800000019;2492
641;2.2134885000000395;2492
642;2.2169035000001713;2491
643;2.220855400000346;2490
644;2.2238673000001654;2489
645;2.227623400000084;2488
646;2.2308842000002187;2488
647;2.2346276000002945;2487
648;2.2384885999999824;2487
649;2.2415639000000738;2486
650;2.2446466000001237;2485
651;2.247654500000408;2485
652;2.251692400000138;2484
653;2.2544368000003487;2482
654;2.257921300000362;2482
655;2.2619635000000926;2481
656;2.265965700000379;2481
657;2.269955100000061;2480
658;2.273966400000063;2479
659;2.277947900000072;2478
660;2.281971600000361;2477
661;2.285917100000006;2476
662;2.2899586000003183;2475
663;2.2939303000002838;2474
664;2.2979467000000113;2473
665;2.301929100000052;2472
666;2.30592790000037;2471
667;2.3099495999999817;2470
668;2.3139602999999624;2469
669;2.3177674000003208;2468
670;2.321516700000302;2467
671;2.3259719000002406;2466
672;2.3299464000001535;2465
673;2.333574100000078;2464
674;2.3364367000003767;2463
675;2.3399349000001166;2462
676;2.343965500000195;2461
677;2.347967900000185;2460
678;2.3514608000000408;2459
679;2.3544145000000753;2458
680;2.357696500000202;2457
681;2.360639600000013;2456
682;2.3636309000003166;2455
683;2.3666345000001456;2454
684;2.369647900000018;2453
685;2.3726308000000245;2452
686;2.375637000000097;2452
687;2.3786239000000933;2451
688;2.381640800000241;2450
689;2.3846135000003414;2449
690;2.3873787000002267;2448
691;2.39063490000035;2448
692;2.3936421000003065;2448
693;2.39639840000018;2447
694;2.3996366999999736;2446
695;2.4026228000002448;2445
696;2.405619300000126;2445
697;2.4086655000000974;2444
698;2.4117067000001953;2443
699;2.4146295000000464;2442
700;2.4176674000000276;2441
701;2.4205478000003495;2440
702;2.4236367000003156;2439
703;2.426623600000312;2438
704;2.429654500000197;2437
705;2.432613400000264;2436
706;2.4356147000003148;2436
707;2.438631400000304;2435
708;2.441632600000048;2435
709;2.444619700000203;2434
710;2.447634999999991;2433
711;2.4506020000003446;2432
712;2.4536777000002985;2431
713;2.4566201000002366;2430
714;2.4593972000002395;2429
715;2.462470200000098;2428
716;2.465628100000231;2426
717;2.468624600000112;2426
718;2.4716803000001164;2425
