;time;amplitude
0;0.0031593999997312494;2429
1;0.007681899999624875;2429
2;0.011216999999760446;2429
3;0.015648099999907572;2430
4;0.019128099999761616;2430
5;0.02354349999995975;2430
6;0.0276584999996885;2430
7;0.032640899999933026;2430
8;0.03620999999975538;2430
9;0.040806099999826984;2430
10;0.04563099999995757;2430
11;0.04905389999976251;2431
12;0.05204909999974916;2431
13;0.055368299999827286;2431
14;0.05938149999974485;2431
15;0.0635136999999304;2431
16;0.06707189999997354;2432
17;0.07008459999997285;2432
18;0.07336809999969773;2432
19;0.07737569999972038;2432
20;0.08135989999982485;2432
21;0.08481299999994008;2432
22;0.08835920000001352;2432
23;0.09229139999979452;2433
24;0.09605399999963993;2433
25;0.09997999999995955;2433
26;0.10292309999977078;2433
27;0.10627469999963068;2433
28;0.10991119999971488;2433
29;0.11301569999977801;2434
30;0.11704469999995126;2434
31;0.11995569999999134;2434
32;0.1228744000000006;2434
33;0.12648489999992307;2434
34;0.13032439999960843;2434
35;0.13305529999979626;2433
36;0.13590290000001914;2434
37;0.1388531999996303;2433
38;0.14228129999992234;2433
39;0.14630439999973532;2433
40;0.14986679999992703;2433
41;0.1527673999999024;2432
42;0.1559279999996761;2433
43;0.15920649999998204;2433
44;0.16326419999995778;2432
45;0.1661765999997442;2432
46;0.16972679999980755;2432
47;0.1732158999998319;2432
48;0.17594799999960742;2432
49;0.17903119999982664;2432
50;0.1818927999997868;2432
51;0.1847522999996727;2431
52;0.18773539999983768;2431
53;0.1899770999998509;2431
54;0.19289429999980712;2431
55;0.19589189999987866;2431
56;0.19890029999987746;2431
57;0.20177819999980784;2430
58;0.20510549999971772;2431
59;0.20802839999987555;2431
60;0.21103649999986374;2431
61;0.21402039999975386;2431
62;0.21688689999973576;2431
63;0.2201325999999426;2431
64;0.2230387999998129;2431
65;0.22602770000003147;2431
66;0.22903439999981856;2431
67;0.23188140000002022;2431
68;0.23484599999983402;2430
69;0.23829969999997047;2430
70;0.24237589999984266;2431
71;0.246328999999605;2430
72;0.25018249999993714;2430
73;0.2548444999997628;2430
74;0.25935649999973975;2430
75;0.26333299999987503;2430
76;0.26711939999995593;2429
77;0.27149029999964114;2429
78;0.27544209999996383;2429
79;0.27951249999978245;2429
80;0.283232599999792;2429
81;0.2860486999998102;2428
82;0.28926949999959106;2428
83;0.29208779999999024;2428
84;0.2954880999996021;2427
85;0.2994612999996207;2427
86;0.303406300000006;2427
87;0.30741079999961585;2427
88;0.3114608999999291;2427
89;0.31547920000002705;2427
90;0.31782709999970393;2426
91;0.32243739999967147;2426
92;0.32640449999962584;2426
93;0.33043229999975665;2426
94;0.33387549999997646;2425
95;0.33743269999968106;2425
96;0.34133169999995516;2425
97;0.34410479999996824;2425
98;0.3481950999998844;2424
99;0.352118999999675;2424
100;0.35623309999982666;2424
101;0.35917129999961617;2424
102;0.36238559999992503;2424
103;0.36632549999967523;2424
104;0.36929739999959565;2423
105;0.37342279999984385;2423
106;0.37737809999998717;2422
107;0.3810636999996859;2422
108;0.38487949999989723;2421
109;0.38843919999999343;2421
110;0.39246460000003935;2421
111;0.3965336999999636;2420
112;0.39991680000002816;2420
113;0.40341499999976804;2419
114;0.40719529999978477;2420
115;0.41147259999979724;2419
116;0.4155044999997699;2419
117;0.41944009999997434;2418
118;0.42307869999967807;2418
119;0.4259013999999297;2418
120;0.42955529999971986;2417
121;0.4327524000000267;2417
122;0.43616819999988365;2417
123;0.4391233999999713;2416
124;0.4432262999998784;2416
125;0.4476159999999254;2416
126;0.4509267999997064;2416
127;0.454150899999604;2415
128;0.4571501000000353;2415
129;0.46001879999994344;2415
130;0.4630938000000242;2415
131;0.4669104999998126;2414
132;0.47030899999981557;2413
133;0.4732958999998118;2413
134;0.47642699999960314;2413
135;0.48047029999997903;2413
136;0.483760699999948;2412
137;0.4874459999996361;2412
138;0.49138589999984106;2411
139;0.49539069999991625;2411
140;0.4992099999999482;2410
141;0.5031786999998076;2410
142;0.5058411999998498;2409
143;0.5089693999998417;2409
144;0.5118947999999364;2408
145;0.5153987999997298;2408
146;0.5182325999999193;2408
147;0.5211782999999741;2408
148;0.524144299999989;2407
149;0.5270682000000306;2407
150;0.5301818999996613;2407
151;0.5329051999997318;2407
152;0.535929699999997;2407
153;0.5387571999999636;2407
154;0.5418466999999509;2406
155;0.5447973999998794;2406
156;0.5479994999996052;2406
157;0.5506255999998757;2405
158;0.5540241999997306;2405
159;0.5570927999997366;2405
160;0.5601176000000123;2404
161;0.5628990999998678;2404
162;0.5659353999999439;2404
163;0.5690081999996437;2404
164;0.5718025999999554;2403
165;0.5749745999996776;2403
166;0.5779727999997704;2403
167;0.5809869999998227;2403
168;0.5839189999996961;2402
169;0.5867301999996926;2402
170;0.5890416999995978;2402
171;0.5918915999995988;2401
172;0.5947856999996475;2401
173;0.5979018999996697;2401
174;0.6009401999999682;2400
175;0.6040337999997973;2400
176;0.6068867999997565;2400
177;0.6096644999997807;2399
178;0.612907499999892;2399
179;0.6156936999996105;2398
180;0.6186894999996184;2398
181;0.6209133999996084;2398
182;0.6238694999997279;2398
183;0.6270865999999842;2398
184;0.6297687999999653;2397
185;0.6326139999996485;2397
186;0.634782599999653;2397
187;0.6380039999999099;2397
188;0.6411065999996026;2397
189;0.6438869999997223;2396
190;0.6470419999996011;2396
191;0.6497313999998369;2395
192;0.6528472999998485;2395
193;0.6558815999997023;2395
194;0.6587591999996221;2395
195;0.6617754999997487;2395
196;0.6648582999996506;2394
197;0.6683079999997972;2394
198;0.672101599999678;2393
199;0.675016499999856;2393
200;0.6790962999998555;2392
201;0.6820056999999906;2392
202;0.6852469000000383;2392
203;0.6881407999999283;2392
204;0.6911377999999786;2392
205;0.6941272999997636;2392
206;0.6971392999998898;2391
207;0.6996904999996332;2392
208;0.7027836999995998;2392
209;0.7058054999997694;2391
210;0.7090514999999868;2391
211;0.7122746999998526;2391
212;0.7150967999996283;2391
213;0.7180432999998629;2391
214;0.7208892999997261;2391
215;0.7239244999996117;2391
216;0.7269118999997772;2391
217;0.7297926999999618;2391
218;0.7327338999998574;2391
219;0.7358735999996497;2391
220;0.7389264999997067;2391
221;0.7419293999996626;2391
222;0.7448785999999927;2391
223;0.7480181999999331;2390
224;0.7510511999998926;2390
225;0.753919699999642;2390
226;0.7569372999996631;2390
227;0.7599356999999145;2390
228;0.7628888999997798;2390
229;0.7660039999996116;2390
230;0.7690582000000177;2390
231;0.771927499999947;2389
232;0.7748428999998396;2390
233;0.7778336999999738;2389
234;0.7808342999996967;2389
235;0.7837491999998747;2389
236;0.7867674999997689;2389
237;0.7897659999998723;2389
238;0.7929104999998344;2390
239;0.7959461999998894;2389
240;0.7989079999997557;2389
241;0.8017964999999094;2389
242;0.8048072999999931;2389
243;0.8078327999996873;2389
244;0.8113934999996673;2389
245;0.815824799999973;2389
246;0.8203747999996267;2389
247;0.8245550999999978;2389
248;0.8283859999996821;2389
249;0.8324050999999599;2389
250;0.8358460999997988;2389
251;0.8392180999999255;2389
252;0.8421519999997145;2389
253;0.8454333999998198;2389
254;0.8491165999998884;2389
255;0.8523120999998355;2389
256;0.8562790999999379;2389
257;0.8602774999999383;2389
258;0.8639691999997012;2389
259;0.8677931999995963;2389
260;0.870903300000009;2389
261;0.8738959999996041;2390
262;0.8769026999998459;2390
263;0.8802602999999181;2390
264;0.8827977999999348;2390
265;0.8863054999997075;2390
266;0.8902969999999186;2390
267;0.8943030999998882;2391
268;0.8983071999996355;2391
269;0.900798599999689;2391
270;0.9043220999997175;2391
271;0.9072562999999718;2391
272;0.9102251999997861;2391
273;0.9132968999997502;2391
274;0.9161851999997452;2391
275;0.9189456999997674;2391
276;0.922266099999888;2392
277;0.9252698999998756;2392
278;0.9290425999997751;2392
279;0.9322753999999804;2392
280;0.9347874000000047;2392
281;0.9377498999997442;2392
282;0.9413010999996914;2392
283;0.9452884999996058;2392
284;0.9488300999996682;2393
285;0.9523752000000059;2393
286;0.9552730000000338;2393
287;0.9582823999999164;2393
288;0.9613699999999881;2393
289;0.9653665999999248;2393
290;0.9682785999998487;2393
291;0.9712518999999702;2393
292;0.974228299999595;2393
293;0.9772301999996671;2393
294;0.9801528999996663;2393
295;0.9839343999997254;2394
296;0.9869564999999056;2394
297;0.9899622999996609;2394
298;0.9940583999996306;2394
299;0.9980467999998837;2395
300;1.0008660999997119;2394
301;1.004291999999623;2394
302;1.0083808999997927;2395
303;1.012292399999751;2395
304;1.0160611999999674;2395
305;1.019272699999874;2395
306;1.0233052999997199;2395
307;1.027288999999655;2396
308;1.0313037999999324;2396
309;1.0353132999998707;2396
310;1.0389233999999306;2397
311;1.0423212999999123;2397
312;1.0459281999997074;2398
313;1.0493244999997842;2398
314;1.051850899999863;2399
315;1.0552364000000125;2399
316;1.059299899999587;2399
317;1.0631814999997005;2399
318;1.0662545999998656;2400
319;1.0692762999997285;2400
320;1.0722422999997434;2400
321;1.075239799999963;2400
322;1.0783096999998634;2401
323;1.0819526000000224;2401
324;1.0853763999998591;2401
325;1.089272599999731;2402
326;1.09327119999989;2402
327;1.0962868999999955;2402
328;1.0999139999998988;2403
329;1.1031835999997384;2403
330;1.1061563999996906;2403
331;1.1091484999997192;2404
332;1.1119884999998249;2404
333;1.1150307999996585;2405
334;1.1180732999996508;2405
335;1.1210783999999876;2405
336;1.1240099999999984;2405
337;1.1270391999996718;2405
338;1.1302835999999843;2406
339;1.1340845999998237;2406
340;1.1368170999999165;2406
341;1.139950399999634;2407
342;1.142903799999658;2407
343;1.145821099999921;2407
344;1.1488762999997562;2408
345;1.1516762999999628;2408
346;1.1537985999998455;2408
347;1.1568065999999817;2409
348;1.1601002999996126;2409
349;1.1631887999997161;2409
350;1.1661395999999513;2409
351;1.1686391999996886;2410
352;1.172260499999993;2410
353;1.1751478999999563;2410
354;1.1783543999999893;2410
355;1.1821483999997326;2410
356;1.185242499999731;2410
357;1.1883088999998108;2410
358;1.1923149999997804;2411
359;1.1962166999996953;2411
360;1.1987457999998696;2412
361;1.201843899999858;2412
362;1.2053335999999035;2412
363;1.2082179999997607;2413
364;1.2111919999997554;2413
365;1.2139493999998194;2414
366;1.2169965999996748;2414
367;1.2200932999999168;2414
368;1.2229955999996491;2415
369;1.2256975000000239;2415
370;1.2289899999996123;2416
371;1.2319771999996192;2416
372;1.2337444999998297;2416
373;1.2371094000000085;2416
374;1.2401966999996148;2417
375;1.2440510999999788;2417
376;1.2468982000000324;2417
377;1.2497465999999804;2418
378;1.2531812999995964;2418
379;1.2560521000000335;2419
380;1.2589853999998013;2419
381;1.2621162999998887;2420
382;1.2661628999999266;2420
383;1.2693573999999899;2421
384;1.2722586999998384;2421
385;1.2753666999997222;2421
386;1.2792746999998599;2421
387;1.284078799999861;2422
388;1.2874539999997978;2422
389;1.2903215999999702;2422
390;1.2930318999997326;2422
391;1.2961233999999422;2422
392;1.2989368999997168;2422
393;1.3018348999999034;2423
394;1.304929799999627;2423
395;1.307854099999986;2423
396;1.3108428999998978;2424
397;1.3140295999996852;2424
398;1.3167736999998851;2424
399;1.3199953999996978;2424
400;1.3231246000000283;2425
401;1.3259729999999763;2425
402;1.3287969999996676;2425
403;1.331992099999752;2426
404;1.334755899999891;2426
405;1.337837000000036;2426
406;1.3409679999999753;2426
407;1.344065999999657;2426
408;1.3469663999999284;2427
409;1.3498373999996147;2427
410;1.3528172999999697;2427
411;1.355804899999839;2427
412;1.3589582999998129;2427
413;1.3621100999998816;2428
414;1.3649585999996816;2427
415;1.368056499999966;2427
416;1.3708303999997042;2428
417;1.3739803999997093;2428
418;1.376840799999627;2428
419;1.3799606999996286;2428
420;1.3827483999998549;2429
421;1.3858581999998023;2429
422;1.3890999999998712;2429
423;1.3920030999997834;2429
424;1.394959999999628;2429
425;1.3981440999996266;2430
426;1.400947599999654;2430
427;1.4038190999999642;2430
428;1.406958499999746;2430
429;1.4098141999998006;2430
430;1.413041499999963;2430
431;1.4157442999999148;2430
432;1.4178752999996505;2431
433;1.4209698999998182;2431
434;1.4238178999999036;2431
435;1.4269642999997814;2431
436;1.4300546999998005;2431
437;1.4329131999998026;2432
438;1.4359468999996352;2432
439;1.4391008999996302;2432
440;1.4419451999997364;2432
441;1.4447915999999168;2432
442;1.4479560999998284;2432
443;1.4508356999999705;2432
444;1.4528215000000273;2432
445;1.4558148999999503;2432
446;1.4588458999996874;2431
447;1.4619120999996085;2431
448;1.4647989999998572;2431
449;1.4669152999999824;2432
450;1.4700686999999562;2431
451;1.4727788000000146;2431
452;1.4758904000000257;2431
453;1.4787733999996817;2431
454;1.4819513999996161;2431
455;1.4850782999997136;2431
456;1.4879139999998188;2431
457;1.490984799999751;2431
458;1.4941679999997177;2431
459;1.4970040999996854;2431
460;1.5000780000000304;2431
461;1.5040165999998862;2431
462;1.5071328999997604;2431
463;1.5099970999999641;2431
464;1.5128114999997706;2431
465;1.5156944000000294;2431
466;1.5180691999998999;2431
467;1.520850199999586;2431
468;1.5240413999999873;2431
469;1.5268780999999763;2431
470;1.5302783999995881;2431
471;1.5328496999995878;2432
472;1.5362222999997357;2432
473;1.5394796999999016;2432
474;1.5423482999999578;2432
475;1.5464951999997538;2432
476;1.5492526999996699;2432
477;1.5518237999999656;2431
478;1.5537202999998954;2431
479;1.5559236999997665;2431
480;1.5590579999998226;2431
481;1.5621267999999873;2431
482;1.5649837999999363;2431
483;1.5677225999997972;2430
484;1.57096219999994;2430
485;1.5737913999996636;2430
486;1.5768832999997358;2430
487;1.5800315999999839;2430
488;1.582887899999605;2430
489;1.5858785999998872;2430
490;1.5891028999999435;2429
491;1.5919530999999552;2429
492;1.5947890999996162;2429
493;1.5978794999996353;2429
494;1.6011234999996304;2428
495;1.6042975999998816;2428
496;1.60792629999969;2428
497;1.611064599999736;2428
498;1.6141429999997854;2428
499;1.6168284999998832;2428
500;1.61998339999991;2428
501;1.623130499999661;2427
502;1.6259850999999799;2428
503;1.6291580999995858;2428
504;1.6319954999999027;2428
505;1.6348871999998664;2427
506;1.6379837999998017;2427
507;1.6411269000000175;2427
508;1.6441218999998455;2427
509;1.6471572000000378;2427
510;1.649865399999726;2427
511;1.6531192999996165;2427
512;1.6561179000000266;2427
513;1.6591209999996863;2426
514;1.6621480999997402;2426
515;1.6650331999999253;2426
516;1.6680254999996578;2426
517;1.6711503999999877;2426
518;1.6741453999998157;2426
519;1.677153499999804;2426
520;1.680151300000034;2426
521;1.6828711999996813;2425
522;1.685792699999638;2425
523;1.6878968999999415;2425
524;1.6911098999999012;2425
525;1.694062799999756;2425
526;1.697070100000019;2425
527;1.699736799999755;2424
528;1.7030806999996457;2424
529;1.7061138999997638;2424
530;1.709117200000037;2424
531;1.7120331999999507;2424
532;1.7151648999997633;2424
533;1.7181934000000183;2423
534;1.7210447999996177;2423
535;1.7241210999995928;2423
536;1.7270286999996642;2423
537;1.7300624999998035;2423
538;1.7341465999998036;2422
539;1.7370971000000281;2422
540;1.7401115999996364;2422
541;1.7430457999998907;2422
542;1.7460790000000088;2421
543;1.7486832999998114;2421
544;1.7509869999998955;2421
545;1.754126499999984;2420
546;1.7571123999996416;2420
547;1.7600625000000036;2420
548;1.763067399999727;2420
549;1.7657184999998208;2420
550;1.7678699999996752;2420
551;1.7711513999997806;2420
552;1.7741479999999683;2420
553;1.7771536999998716;2419
554;1.780153899999732;2419
555;1.7827409999999873;2418
556;1.786168799999814;2418
557;1.7891152999995938;2418
558;1.7921228000000156;2418
559;1.7951366999996026;2417
560;1.7981202999999368;2417
561;1.8009970999996767;2417
562;1.804034799999954;2417
563;1.8071073999999498;2416
564;1.810056099999656;2416
565;1.8131526999995913;2415
566;1.815650199999709;2415
567;1.8180250999998862;2415
568;1.821111099999598;2415
569;1.8241187999997237;2415
570;1.8271187000000282;2415
571;1.830119399999603;2414
572;1.8327785999999833;2414
573;1.8361360999997487;2413
574;1.8391147999996065;2413
575;1.842119499999626;2413
576;1.8451443999997537;2412
577;1.848026299999674;2412
578;1.8509853999998995;2411
579;1.8540947999999844;2411
580;1.8570435999999972;2411
581;1.8601049999997485;2411
582;1.8631484999996246;2410
583;1.865788099999918;2410
584;1.8691517999995995;2410
585;1.8721514999997453;2410
586;1.8751291999997193;2409
587;1.878155799999604;2409
588;1.8811467999998968;2409
589;1.8838865999996415;2409
590;1.887118499999815;2408
591;1.8900587999996787;2408
592;1.8930460999999923;2408
593;1.8961578999997073;2408
594;1.8989655999998831;2408
595;1.9021556999996392;2408
596;1.90514979999989;2407
597;1.9081183999996938;2407
598;1.9110788999996657;2406
599;1.9141474999996717;2406
600;1.9169987999998739;2406
601;1.9200344999999288;2406
602;1.9231516999998348;2405
603;1.926162199999908;2405
604;1.9291472999998405;2405
605;1.9319393999999193;2404
606;1.934066399999665;2404
607;1.9368956999996954;2404
608;1.9401147999997193;2403
609;1.9431159999999181;2403
610;1.9461499999997613;2403
611;1.9490523999998004;2402
612;1.9520747999999912;2402
613;1.9551190999995924;2401
614;1.9580689999997958;2401
615;1.96111159999964;2401
616;1.9641478999997162;2400
617;1.9670055999999931;2400
618;1.970148099999733;2399
619;1.9731506999996782;2399
620;1.9761598999998569;2398
621;1.9791567999996005;2398
622;1.9818548999996892;2398
623;1.9850422999998045;2397
624;1.9881145999997898;2397
625;1.9910981999996693;2397
626;1.9941165999998702;2397
627;1.997150799999872;2396
628;1.9998861999997644;2396
629;2.002801599999657;2396
630;2.0048245999996652;2396
631;2.006797000000006;2396
632;2.0090347000000293;2396
633;2.0121344999997746;2395
634;2.0148745999999846;2395
635;2.0169716999998855;2395
636;2.020167700000002;2395
637;2.0231645999997454;2395
638;2.0261806999997134;2394
639;2.0291698999999426;2394
640;2.032048699999905;2394
641;2.0351803999997173;2394
642;2.0381737999996403;2393
643;2.0411584999997103;2393
644;2.044137899999896;2393
645;2.047159699999611;2393
646;2.0497824999997647;2393
647;2.053150999999616;2393
648;2.0561166999996203;2393
649;2.059114299999692;2393
650;2.0621463999996195;2392
651;2.065132100000028;2392
652;2.068002299999989;2392
653;2.07112989999996;2392
654;2.0741260999998303;2392
655;2.07712999999967;2391
656;2.0801384999999755;2391
657;2.0828420999996524;2391
658;2.0861288999999488;2391
659;2.0891122999996696;2391
660;2.09201529999973;2391
661;2.0950082999997903;2391
662;2.0979241;2391
663;2.1008758999996644;2390
664;2.104102899999816;2390
665;2.1070213999996668;2390
666;2.11002069999995;2390
667;2.1130248999998003;2390
668;2.115747299999839;2390
669;2.1191259999995964;2390
670;2.1220368999997845;2389
671;2.124981999999818;2389
672;2.128149199999825;2389
673;2.131129200000032;2389
674;2.1339639999996507;2389
675;2.1370805999999902;2389
676;2.141422799999873;2389
677;2.1454438999999184;2389
678;2.1492686999999933;2389
679;2.151826699999674;2389
680;2.1553349999999227;2389
681;2.1583166999998866;2389
682;2.161315899999863;2389
683;2.164307899999585;2389
684;2.1671604999996816;2389
685;2.1702064999999493;2389
686;2.172823499999595;2388
687;2.1758629999999357;2389
688;2.179260699999759;2389
689;2.182038999999804;2388
690;2.184837199999947;2388
691;2.187832199999775;2388
692;2.190833499999826;2388
693;2.193841699999666;2388
694;2.1959924999996474;2388
695;2.198867099999916;2388
696;2.2023040999997647;2388
697;2.2050766999996085;2388
698;2.208047799999804;2388
699;2.211090399999648;2388
700;2.2140583000000333;2388
701;2.2168996999998853;2388
702;2.220039999999699;2388
703;2.2229787999999644;2388
704;2.225962299999992;2388
705;2.2289727999996103;2389
706;2.2320307999998477;2389
707;2.2350016999998843;2389
708;2.2377556999999797;2389
709;2.2407327999999325;2389
710;2.242726799999673;2389
711;2.2447604999997566;2389
712;2.246756099999857;2389
713;2.248673499999768;2389
714;2.25091059999977;2389
715;2.2538932999996177;2389
716;2.2558992999997827;2389
717;2.257873799999743;2390
