;time;amplitude
0;0.003278200000295328;2400
1;0.0069861000001765206;2400
2;0.010263099999974656;2400
3;0.013363500000195927;2400
4;0.01638150000007954;2400
5;0.018850800000109302;2400
6;0.02211459999989529;2400
7;0.02505860000019311;2401
8;0.02910760000031587;2401
9;0.032061000000339845;2401
10;0.03597960000024614;2401
11;0.03933760000018083;2402
12;0.04238100000020495;2402
13;0.045291700000234414;2402
14;0.048965899999984686;2402
15;0.051933700000063254;2402
16;0.05533839999998236;2402
17;0.05921029999990424;2403
18;0.06320380000033765;2403
19;0.06727159999991272;2403
20;0.07043990000011036;2403
21;0.07451670000000377;2404
22;0.07693109999991066;2404
23;0.08012270000017452;2404
24;0.08291230000031646;2405
25;0.08602780000001076;2405
26;0.08890410000003612;2405
27;0.09319270000014512;2405
28;0.09690120000004754;2406
29;0.1003288000001703;2406
30;0.10285539999995308;2406
31;0.10628700000006575;2407
32;0.10894220000000132;2407
33;0.11187450000034005;2406
34;0.11486910000030548;2407
35;0.11782399999992776;2407
36;0.12093630000026678;2407
37;0.12412580000000162;2408
38;0.12694450000026336;2408
39;0.1298068000000967;2408
40;0.13297430000011445;2409
41;0.13583719999996902;2409
42;0.13894510000000082;2409
43;0.1420484000000215;2409
44;0.14511070000025938;2409
45;0.14800830000012866;2410
46;0.15081830000008267;2410
47;0.15394610000021203;2410
48;0.15678479999996853;2410
49;0.15996110000014596;2410
50;0.16301740000017162;2410
51;0.16602740000007543;2410
52;0.16894529999990482;2411
53;0.17208660000005693;2411
54;0.17496600000004037;2411
55;0.17812010000034206;2411
56;0.18098360000021785;2411
57;0.18366510000032576;2411
58;0.1860823000001801;2412
59;0.18890090000013515;2411
60;0.19177650000028734;2412
61;0.1949226000001545;2412
62;0.1976993000002949;2412
63;0.20074810000005527;2412
64;0.20276160000003074;2412
65;0.2046229000002313;2412
66;0.20673820000001797;2412
67;0.2087970000002315;2412
68;0.21064509999996517;2412
69;0.21272769999995944;2412
70;0.2147236000000703;2413
71;0.2167106000001695;2413
72;0.2188163999999233;2413
73;0.22191160000011223;2414
74;0.2248290000002271;2414
75;0.2278270000001612;2414
76;0.229814400000123;2414
77;0.23283810000020821;2415
78;0.23469920000025013;2415
79;0.236790800000108;2415
80;0.23877790000005916;2415
81;0.24186240000017278;2416
82;0.2447240999999849;2416
83;0.2476873999999043;2416
84;0.2497769999999946;2416
85;0.2516531000001123;2416
86;0.25375960000019404;2416
87;0.2557501000001139;2416
88;0.25865040000007866;2417
89;0.26084780000019236;2417
90;0.2628156000000672;2417
91;0.26568829999996524;2417
92;0.26762970000027053;2417
93;0.26959630000010293;2417
94;0.27158589999999094;2417
95;0.27358700000013414;2417
96;0.2755898000000343;2417
97;0.2776437000002261;2418
98;0.27966490000017075;2418
99;0.28169130000014775;2418
100;0.2836741000000984;2418
101;0.2858254000002489;2418
102;0.28883489999998346;2418
103;0.29183210000019244;2418
104;0.29499500000019907;2418
105;0.2979091000001972;2418
106;0.3007826000002751;2418
107;0.3039085000000341;2418
108;0.30664729999989504;2418
109;0.3089119999999639;2418
110;0.3119141000001946;2418
111;0.31375690000004397;2418
112;0.31660210000018196;2419
113;0.3187316000003193;2419
114;0.32100530000025174;2419
115;0.3238596000001053;2419
116;0.3266944000001786;2419
117;0.3290209000001596;2419
118;0.3319031000000905;2420
119;0.33595839999998134;2420
120;0.33890340000016295;2420
121;0.34205629999996745;2420
122;0.3449150000001282;2420
123;0.3477341000002525;2420
124;0.3507601000001159;2420
125;0.35268600000017614;2420
126;0.35465419999991354;2420
127;0.35664470000028814;2420
128;0.3587895999999091;2420
129;0.36182499999995343;2420
130;0.3637598000000253;2420
131;0.36576930000001084;2420
132;0.3676468000003297;2420
133;0.36968260000003283;2420
134;0.3716577000000143;2420
135;0.3739189000002625;2420
136;0.37565519999998287;2420
137;0.3777404000002207;2420
138;0.3797452000003432;2420
139;0.3816005000003315;2420
140;0.3837275999999292;2420
141;0.3856713000000127;2420
142;0.3876448999999411;2420
143;0.38964579999992566;2420
144;0.3917012000001705;2420
145;0.39374980000002324;2420
146;0.3958345000000918;2420
147;0.3987337000003208;2420
148;0.4007096000000274;2420
149;0.4027069000003394;2420
150;0.40480040000011286;2420
151;0.40673610000021654;2419
152;0.4086320000001251;2420
153;0.41077220000033776;2420
154;0.4127480000001924;2420
155;0.4147354000001542;2420
156;0.41672109999990425;2420
157;0.4188008000000991;2420
158;0.420765300000312;2420
159;0.42383079999990514;2420
160;0.42577410000012605;2420
161;0.42774869999993825;2420
162;0.4296792000000096;2420
163;0.4316455000002861;2420
164;0.43356320000020787;2420
165;0.43562130000009347;2420
166;0.4377368000000388;2420
167;0.4397231000002648;2420
168;0.44175510000013674;2420
169;0.44370729999991454;2420
170;0.4457412000001568;2420
171;0.44893309999997655;2420
172;0.450744400000076;2420
173;0.4539742000001752;2420
174;0.45706079999990834;2419
175;0.4598767000002226;2419
176;0.4627336000003197;2419
177;0.4650067000002309;2419
178;0.4677302000000054;2419
179;0.47085770000012417;2419
180;0.4739008000001377;2419
181;0.47691200000008394;2419
182;0.47990789999994377;2419
183;0.4829045000001315;2419
184;0.4847113000000718;2419
185;0.487979500000165;2419
186;0.49071200000025783;2419
187;0.49392800000032366;2418
188;0.4970929999999498;2418
189;0.4998774999999114;2418
190;0.5019606999999269;2418
191;0.5050807000002351;2418
192;0.5079338999998981;2418
193;0.5107539999999062;2418
194;0.5139444999999796;2418
195;0.516668700000082;2418
196;0.5187943000000814;2418
197;0.5219514000000345;2418
198;0.5250648999999612;2418
199;0.5279033000001618;2418
200;0.5311366999999336;2417
201;0.533779300000333;2417
202;0.5370093999999881;2417
203;0.5401000000001659;2417
204;0.5430107000001954;2417
205;0.5457876000000397;2417
206;0.5478650000000016;2417
207;0.5497663000001012;2416
208;0.5518139999999221;2416
209;0.5547927000002346;2416
210;0.5580325999999332;2416
211;0.5622711000000891;2415
212;0.5651244000000588;2415
213;0.5678875000003245;2415
214;0.5709138000001985;2415
215;0.5739085000000159;2415
216;0.5770685000002231;2415
217;0.5807801999999356;2415
218;0.5838400000002366;2414
219;0.5870798999999352;2414
220;0.5899782999999843;2414
221;0.5931276000001162;2414
222;0.5959419999999227;2413
223;0.5990388000000166;2413
224;0.6019728000001123;2413
225;0.6049576000000343;2412
226;0.6080839000001106;2412
227;0.6109614000001784;2412
228;0.614087500000096;2412
229;0.6167309000002206;2412
230;0.6189828999999918;2412
231;0.6218847000000096;2412
232;0.6248516000000564;2411
233;0.6278744000001097;2411
234;0.630895799999962;2411
235;0.6336774999999761;2410
236;0.6358180000001994;2410
237;0.6377163000001929;2410
238;0.6396450000002005;2410
239;0.6417036000002554;2410
240;0.6437224999999671;2410
241;0.645718400000078;2410
242;0.6476971000001868;2410
243;0.6497435999999652;2409
244;0.6519084000001385;2409
245;0.6549282999999377;2409
246;0.6580192999999781;2409
247;0.6611019000001761;2409
248;0.6639334999999846;2409
249;0.6677654000000075;2409
250;0.6709760000003371;2409
251;0.6741421000001537;2409
252;0.6769922000003135;2409
253;0.6799759999998969;2409
254;0.6829897000002347;2408
255;0.6859494000000268;2408
256;0.6889463000002252;2407
257;0.6919477999999799;2407
258;0.6947551000002932;2407
259;0.6970043000001169;2407
260;0.6987156000000141;2407
261;0.7019152000002578;2407
262;0.7047839000001659;2407
263;0.7067168000003221;2407
264;0.7088020999999571;2406
265;0.7119790000001558;2406
266;0.7151277000002665;2406
267;0.7177028999999493;2406
268;0.7196969000001445;2406
269;0.7218600000001061;2406
270;0.7247990000000755;2405
271;0.7269242000002123;2405
272;0.7301044999999249;2405
273;0.7329524000001584;2404
274;0.7360198000001219;2404
275;0.7389886000000843;2404
276;0.7421362000000045;2404
277;0.7453862000002118;2404
278;0.7482543999999507;2403
279;0.7507731999999123;2403
280;0.7539292999999816;2403
281;0.7568169000001035;2402
282;0.7600369000001592;2402
283;0.7627910000001066;2402
284;0.7657504000003428;2402
285;0.7677596000003177;2402
286;0.770983200000046;2401
287;0.7739369000000806;2401
288;0.777108600000247;2401
289;0.7799177000001691;2400
290;0.7828497000000425;2401
291;0.7851046000000679;2400
292;0.7880419000002803;2400
293;0.791078600000219;2400
294;0.7939842000000681;2400
295;0.7968805999998949;2400
296;0.7997973999999886;2400
297;0.8029442000001836;2400
298;0.8060976000001574;2400
299;0.809042600000339;2400
300;0.8121681000002354;2400
301;0.8150415000000066;2400
302;0.8182136000000355;2399
303;0.821044300000267;2400
304;0.8239533999999367;2400
305;0.8270400999999765;2400
306;0.8300160000003416;2400
307;0.8331708000000617;2399
308;0.8359318000002531;2399
309;0.8390649000002668;2399
310;0.8419584000002942;2399
311;0.8449829000001046;2399
312;0.8476684000002024;2399
313;0.8498096000002988;2399
314;0.8529670000002625;2399
315;0.8559337000001506;2399
316;0.8589866000002075;2399
317;0.8619228000002295;2399
318;0.8647894999999153;2399
319;0.867892700000084;2399
320;0.8709493999999722;2399
321;0.8741220000001704;2398
322;0.8784740999999485;2398
323;0.8821574000003238;2398
324;0.885046599999896;2398
325;0.8877895000000535;2398
326;0.8898054000001139;2398
327;0.8917013000000225;2398
328;0.8938047999999981;2398
329;0.8969331000002967;2397
330;0.8998309000003246;2397
331;0.9029974000000038;2398
332;0.9058398000001944;2397
333;0.9087354000002961;2397
334;0.9109572000002117;2397
335;0.9139236000000892;2397
336;0.9167672000003222;2397
337;0.9201213000001189;2398
338;0.9229699000002256;2397
339;0.9259492000001046;2397
340;0.9289381000003232;2397
341;0.9319424000000254;2397
342;0.9350024000000303;2397
343;0.9379761000000144;2397
344;0.9411001000003125;2397
345;0.9439832000002752;2397
346;0.9468071999999665;2397
347;0.9499411000001601;2397
348;0.9529548999998951;2397
349;0.9559721999999056;2397
350;0.9589745000002949;2397
351;0.9621004999999059;2397
352;0.9649764000000687;2397
353;0.9678026999999929;2397
354;0.9709830000001602;2398
355;0.9737733000001754;2397
356;0.9769526000000042;2397
357;0.9799769000001106;2398
358;0.9832000000001244;2398
359;0.9859695000000102;2397
360;0.9889876000002005;2398
361;0.9919733000001543;2397
362;0.9951060000003054;2397
363;0.9979723999999806;2397
364;1.0009205999999722;2398
365;1.0040241000001515;2398
366;1.0069756000002599;2398
367;1.0101064999998925;2397
368;1.0128852000002553;2398
369;1.0160774000000856;2398
370;1.0189786999999342;2399
371;1.0219599000001836;2399
372;1.024977399999898;2399
373;1.0279300000001967;2399
374;1.0309849000000213;2399
375;1.0339759000003141;2399
376;1.0371075000002747;2399
377;1.0399830999999722;2399
378;1.043098099999952;2399
379;1.0459875000001375;2399
380;1.0487574000003406;2400
381;1.0511012000001756;2400
382;1.053976000000148;2400
383;1.0570944000000964;2400
384;1.0599964000002728;2400
385;1.0631043000003046;2401
386;1.0659756000000016;2401
387;1.069059400000242;2401
388;1.071991799999978;2401
389;1.0749792000001435;2401
390;1.0767997000002651;2401
391;1.079977500000041;2401
392;1.0827023000001645;2401
393;1.085892000000058;2402
394;1.0889795000002778;2402
395;1.0917567999999847;2402
396;1.094972400000188;2402
397;1.0981037999999899;2402
398;1.10097930000029;2402
399;1.1041001000003234;2403
400;1.106973299999936;2403
401;1.1111109000003125;2403
402;1.1139836000002106;2403
403;1.1166263000000072;2404
404;1.1189637000002222;2404
405;1.1219675000002098;2403
406;1.1251056999999491;2404
407;1.1279751000001852;2404
408;1.130854200000158;2404
409;1.133976800000255;2404
410;1.1370276000002377;2404
411;1.139981600000283;2404
412;1.1429738000001635;2405
413;1.146103900000071;2405
414;1.1489690000003066;2405
415;1.1521026000000347;2406
416;1.1546315000000504;2406
417;1.1569699000001492;2406
418;1.160114799999974;2406
419;1.1629741000001559;2406
420;1.1660672000002705;2406
421;1.168972599999961;2406
422;1.1719651000003068;2406
423;1.1749700000000303;2407
424;1.1780926999999792;2407
425;1.180971799999952;2407
426;1.1840344000002005;2408
427;1.1870999000002485;2408
428;1.1899822000000313;2408
429;1.193109800000002;2408
430;1.1959820000001855;2409
431;1.19880349999994;2409
432;1.2010467000000062;2409
433;1.2039746000000378;2410
434;1.2071104999999989;2410
435;1.2099637000001167;2410
436;1.2129619000002094;2410
437;1.2159786000001986;2411
438;1.2188783999999941;2411
439;1.2220314999999573;2411
440;1.2249847000002774;2411
441;1.2281029999999191;2411
442;1.2309814000000188;2412
443;1.2338205000000926;2412
444;1.2369809000001624;2412
445;1.2400010999999722;2413
446;1.242971900000157;2413
447;1.2459621000002699;2413
448;1.2488329000002523;2414
449;1.2519760000000133;2414
450;1.2551068000002488;2414
451;1.2579764000001887;2414
452;1.2611037000001488;2414
453;1.263953500000298;2415
454;1.2667033000002448;2415
455;1.2699390000002495;2415
456;1.2729831999999988;2415
457;1.276133100000152;2415
458;1.2789851000002272;2416
459;1.2820999000000484;2416
460;1.2849712000002;2416
461;1.2881087000000662;2416
462;1.2909929000002194;2416
463;1.2939734000001408;2416
464;1.29677700000002;2416
465;1.2998523000001114;2416
466;1.3021161000001484;2416
467;1.3049896000002263;2417
468;1.307801599999948;2417
469;1.310992200000328;2416
470;1.3139939000002414;2417
471;1.316841000000295;2417
472;1.3199947000002794;2417
473;1.3231088000002273;2417
474;1.3260033000001386;2417
475;1.3291124000002128;2418
476;1.3319807000002584;2418
477;1.334829599999921;2418
478;1.338013200000205;2418
479;1.3409826000001885;2418
480;1.344102699999894;2418
481;1.346973600000183;2418
482;1.3498704000003272;2418
483;1.352974400000221;2418
484;1.3559558000001743;2419
485;1.358978499999921;2419
486;1.3621367999999165;2419
487;1.3649843000002875;2418
488;1.3679901999998947;2419
489;1.371118800000204;2419
490;1.3739470999998957;2419
491;1.3767741000001479;2419
492;1.3789639999999963;2419
493;1.3819041000001562;2419
494;1.385113199999978;2419
495;1.387867599999936;2419
496;1.3907444999999825;2419
497;1.3940827999999783;2419
498;1.397049600000173;2420
499;1.3996753999999783;2420
500;1.401959600000282;2420
501;1.403877900000225;2419
502;1.4059016000001066;2419
503;1.4088482000001932;2419
504;1.410909900000206;2419
505;1.4138966000000437;2419
506;1.4167271999999684;2420
507;1.419814100000167;2420
508;1.4229387000000315;2419
509;1.4261022000000594;2420
510;1.4289432999999008;2419
511;1.4321168999999827;2419
512;1.4359889000002113;2420
513;1.439100800000233;2420
514;1.441991500000313;2420
515;1.4451128000000608;2420
516;1.4479992999999922;2420
517;1.4508604000002379;2420
518;1.4538117000001876;2420
519;1.4570229000000836;2420
520;1.4601348000001053;2420
521;1.462986400000318;2420
522;1.465924399999949;2420
523;1.4689919000002192;2420
524;1.4720556000002034;2420
525;1.4749820000001819;2420
526;1.4779170000001614;2420
527;1.4810009000002538;2421
528;1.483985400000165;2420
529;1.4871109000000615;2420
530;1.489988600000288;2420
531;1.4931177000003117;2420
532;1.4960002000002532;2420
533;1.4989972000003036;2420
534;1.5019907000000785;2420
535;1.5051871000000574;2420
536;1.5079696000002514;2420
537;1.51098600000023;2420
538;1.5141209000003073;2419
539;1.5167326999999204;2419
540;1.5201179000000593;2419
541;1.5229899000000842;2419
542;1.5257744000000457;2419
543;1.5287765000002764;2419
544;1.531972400000086;2419
545;1.5351364000002832;2419
546;1.5379860000002736;2418
547;1.5411235000001398;2418
548;1.5439894999999524;2418
549;1.5468147000001409;2418
550;1.549727399999938;2418
551;1.5518205000003036;2418
552;1.5539192000001094;2418
553;1.5569069000002855;2418
554;1.5588792000003195;2418
555;1.560889600000337;2418
556;1.5639203999999154;2417
557;1.565891300000203;2417
558;1.5677427000000534;2417
559;1.569844600000124;2417
560;1.5717985000001136;2418
561;1.5748903000003338;2418
562;1.5769070000001193;2418
563;1.5788110000003144;2417
564;1.5807896000001165;2417
565;1.5829352000000654;2417
566;1.5859298000000308;2417
567;1.5877955000000838;2417
568;1.5899265000002742;2417
569;1.5929189000003134;2417
570;1.594938600000205;2416
571;1.597912400000041;2416
572;1.6007597000002534;2416
573;1.6030531999999766;2416
574;1.605915300000106;2416
575;1.6078293000000485;2416
576;1.6108349999999518;2416
577;1.6139596000002712;2416
578;1.6160515999999916;2416
579;1.6190682000001289;2416
580;1.6221660000001066;2415
581;1.624982799999998;2415
582;1.6278031000001647;2415
583;1.631036000000222;2415
584;1.6338685000000623;2415
585;1.6371115000001737;2415
586;1.6399504999999408;2415
587;1.6430724000001646;2415
588;1.6459733000001506;2414
589;1.6489997000003314;2414
590;1.6519744000001992;2414
591;1.6547691999999188;2414
592;1.6579658999999083;2414
593;1.6609462999999778;2414
594;1.6641042000001107;2414
595;1.6667489000001297;2414
596;1.6700243000000228;2413
597;1.6729901000003338;2413
598;1.6758076000000983;2413
599;1.6788774999999987;2412
600;1.6820391999999629;2412
601;1.6851424999999836;2412
602;1.6879917000001115;2411
603;1.6911141999999018;2411
604;1.6939980000001924;2411
605;1.6971446000002288;2410
606;1.6997215999999753;2410
607;1.702864899999895;2410
608;1.7060630000000856;2409
609;1.7089923000003182;2409
610;1.7121113000002879;2409
611;1.7149825000001329;2409
612;1.7178246000003128;2409
613;1.7210230999999112;2409
614;1.7241143000001102;2408
615;1.7269822000002932;2408
616;1.730088799999976;2408
617;1.7327914000002238;2408
618;1.7360262000001967;2408
619;1.7391391999999541;2407
620;1.7419889000002513;2407
621;1.7451184000001376;2407
622;1.747986100000162;2407
623;1.7508304000002681;2407
624;1.75394069999993;2407
625;1.7570276000001286;2407
626;1.7601156000000628;2407
627;1.7629910000000564;2407
628;1.7667875000001914;2407
629;1.7700103000001945;2406
630;1.7731211000000258;2406
631;1.775988000000325;2406
632;1.7791473000002043;2406
633;1.781986599999982;2405
634;1.784831700000268;2405
635;1.7878820999999334;2405
636;1.7910351999998966;2404
637;1.79414160000033;2404
638;1.796995500000321;2403
639;1.7998617000002923;2403
640;1.803026200000204;2403
641;1.8061483000001317;2403
642;1.8090136000000712;2402
643;1.8117159000003085;2402
644;1.8150582000002942;2402
645;1.8180151999999907;2402
646;1.8211386000002676;2401
647;1.8237481999999545;2401
648;1.8268722000002526;2401
649;1.8300128999999288;2400
650;1.83306870000024;2400
651;1.8360203000002002;2399
652;1.8392072000001463;2399
653;1.8420768000000862;2399
654;1.845020199999908;2399
655;1.8481372999999621;2399
656;1.8510215000001153;2399
657;1.8540640000001076;2398
658;1.8570150000000467;2398
659;1.8598010000000613;2398
660;1.8621723000001111;2398
661;1.8650210999999217;2398
662;1.868139500000325;2398
663;1.8710171000002447;2398
664;1.8739803000003121;2398
665;1.8769003000002158;2398
666;1.878887300000315;2397
667;1.8825289999999768;2397
668;1.8852065999999468;2397
669;1.8883034000000407;2397
670;1.8912460000001374;2397
671;1.89384710000013;2397
672;1.8968598000001293;2398
673;1.8997535000003154;2397
674;1.9019568000003346;2397
675;1.9049066000002313;2397
676;1.9079185000000507;2398
677;1.910928100000092;2398
678;1.9141128000001117;2398
679;1.9168220000001384;2398
680;1.9188234000002922;2398
681;1.9221430000002329;2398
682;1.9249957000001814;2398
683;1.9277852000000166;2398
684;1.9308183000002828;2398
685;1.9338439000002836;2397
686;1.9360517000000073;2397
687;1.9387722000001304;2397
688;1.9410993000001326;2397
689;1.9438098000000537;2397
690;1.9456983000000037;2397
691;1.94770010000002;2397
692;1.9497850000002472;2397
693;1.9529185000001235;2397
694;1.9559512000000723;2397
695;1.9589703999999983;2397
696;1.9619634000000588;2397
697;1.964930600000116;2397
698;1.9685260000001108;2396
699;1.9725471000001562;2397
700;1.9765065999999933;2396
701;1.980561900000339;2396
702;1.9839919999999438;2396
703;1.9871842000002289;2396
704;1.9901703000000452;2396
705;1.9931590000001052;2396
706;1.9961479000003237;2396
707;1.999058800000057;2396
708;2.0021746000002167;2396
709;2.0051510000002963;2396
710;2.0081614999999147;2397
711;2.0111417000002803;2396
712;2.014097799999945;2397
713;2.0169095999999627;2397
714;2.020142300000316;2396
715;2.023136400000112;2396
716;2.0261419000003116;2397
