;time;amplitude
0;0.0039132999995672435;2363
1;0.0073244999998678395;2364
2;0.010921499999767548;2364
3;0.015015299999959097;2365
4;0.019118299999718147;2366
5;0.02292749999969601;2367
6;0.026396199999908276;2367
7;0.03083699999979217;2368
8;0.03509649999978137;2369
9;0.03963519999979326;2370
10;0.04367689999980939;2371
11;0.047445999999581545;2372
12;0.050567299999784154;2373
13;0.05443539999987479;2374
14;0.05746119999957955;2374
15;0.06043419999969046;2375
16;0.06481939999957831;2375
17;0.07005279999975755;2377
18;0.07341859999996814;2378
19;0.07772539999996297;2378
20;0.08164849999957369;2379
21;0.08569479999960095;2380
22;0.08954309999990073;2381
23;0.09234319999995932;2382
24;0.09540499999957319;2382
25;0.09967859999960638;2383
26;0.10393419999991238;2384
27;0.10738649999984773;2385
28;0.11198639999975057;2386
29;0.11593319999974483;2387
30;0.1199653999997281;2388
31;0.12334439999995084;2389
32;0.12678289999985282;2390
33;0.13078189999987444;2391
34;0.13483399999995527;2392
35;0.13846719999992274;2393
36;0.1428515999996307;2394
37;0.1466406999998071;2395
38;0.15077039999960107;2397
39;0.1547352999996292;2398
40;0.15882149999970352;2398
41;0.1627872999997635;2399
42;0.16784059999963574;2401
43;0.17181839999966542;2402
44;0.1758279999999104;2404
45;0.17974329999969996;2405
46;0.18336219999991954;2406
47;0.18635049999966213;2407
48;0.18922239999983503;2408
49;0.1921991999997772;2409
50;0.19519369999989067;2410
51;0.1985370999996121;2411
52;0.20275269999956436;2411
53;0.20632009999962975;2413
54;0.20968139999968116;2414
55;0.21252149999963876;2415
56;0.21528219999981957;2416
57;0.21797209999976985;2417
58;0.2200828999998521;2418
59;0.22318819999964035;2418
60;0.22613779999983308;2419
61;0.22929419999991296;2421
62;0.23212279999961538;2422
63;0.23579780000000028;2423
64;0.23963569999978063;2424
65;0.24373179999975036;2425
66;0.24760609999975713;2425
67;0.2513551999995798;2427
68;0.2542590999996719;2428
69;0.2572861999997258;2429
70;0.2602412999999615;2429
71;0.26317489999973986;2430
72;0.26619940000000497;2430
73;0.2693720999996003;2431
74;0.2726644999997916;2432
75;0.2752100999996401;2433
76;0.27864769999996497;2434
77;0.2826980999998341;2435
78;0.28666619999967224;2436
79;0.2900660999998763;2437
80;0.2932483999998112;2438
81;0.29624129999956494;2439
82;0.29955329999984315;2439
83;0.3030857999997352;2440
84;0.30508649999956106;2441
85;0.30718739999974787;2441
86;0.3100870999996914;2442
87;0.31318149999970046;2443
88;0.3176970999998048;2444
89;0.32166579999966416;2445
90;0.32531499999959124;2446
91;0.3280651999998554;2447
92;0.33160729999963223;2448
93;0.3352304000000004;2449
94;0.33834109999997963;2450
95;0.3412313999997423;2451
96;0.34414339999966614;2452
97;0.3471806999996261;2453
98;0.3501456999997572;2453
99;0.35323379999999815;2454
100;0.35591649999969377;2454
101;0.35940089999985503;2455
102;0.36236799999960567;2456
103;0.36534789999996065;2457
104;0.3683635999996113;2458
105;0.37134729999979754;2459
106;0.37437299999965035;2459
107;0.3773847999996178;2460
108;0.380366999999751;2461
109;0.38335049999977855;2461
110;0.38634799999999814;2462
111;0.3891644999998789;2463
112;0.39238509999995586;2464
113;0.39537749999999505;2464
114;0.39836709999963205;2465
115;0.40138279999973747;2466
116;0.4042594999996254;2467
117;0.40717709999989893;2467
118;0.410138399999596;2468
119;0.41364389999989726;2469
120;0.4177222999996957;2470
121;0.4213238999996065;2471
122;0.42428389999986393;2472
123;0.4272305999998025;2472
124;0.430694499999845;2473
125;0.4346920999996655;2474
126;0.4387629999996534;2474
127;0.44239239999978963;2475
128;0.44550289999961024;2476
129;0.44968189999963215;2477
130;0.45374079999965033;2478
131;0.4571702999996887;2479
132;0.46053719999963505;2479
133;0.46353359999966415;2480
134;0.46758879999970304;2480
135;0.470512499999586;2481
136;0.4741415999997116;2481
137;0.4776832999996259;2482
138;0.48167309999962526;2483
139;0.48449559999971825;2483
140;0.48743679999961387;2483
141;0.4902491999996528;2483
142;0.49336619999985487;2484
143;0.49664339999981166;2484
144;0.5003693999997267;2485
145;0.5043380999995861;2485
146;0.5072580999999445;2486
147;0.5102253000000019;2486
148;0.5135671999996703;2487
149;0.5174951999997575;2488
150;0.5204889999999978;2488
151;0.523173599999609;2488
152;0.5263819999995576;2488
153;0.5291991999997663;2488
154;0.5323986999997032;2489
155;0.535393699999986;2489
156;0.538369099999727;2489
157;0.5413965999996435;2490
158;0.5443933999999899;2490
159;0.5473881999996593;2490
160;0.5503887999998369;2491
161;0.5533975999996983;2492
162;0.5561483999999837;2492
163;0.559401600000001;2492
164;0.5623932999997123;2493
165;0.5651996999999938;2493
166;0.568181099999947;2493
167;0.5711341999999604;2493
168;0.5730367999999544;2493
169;0.5761929999998756;2493
170;0.5792466999996577;2493
171;0.58224379999956;2493
172;0.5852089999998498;2492
173;0.5881949999998142;2493
174;0.5911936999996215;2493
175;0.594250699999975;2493
176;0.5972489999999198;2493
177;0.6002159999998185;2493
178;0.6031757999999172;2494
179;0.6051187999996728;2494
180;0.6071820999995907;2494
181;0.6101824999996097;2494
182;0.6131788999996388;2494
183;0.6161811999995734;2494
184;0.6192527999996855;2494
185;0.6222506999997677;2494
186;0.6257503999995606;2493
187;0.6294512999998005;2493
188;0.6324789999998757;2493
189;0.6351123999997981;2493
190;0.6381709999996019;2493
191;0.6414059999997335;2493
192;0.6443997999999738;2493
193;0.647388299999875;2493
194;0.6503526999999849;2494
195;0.6532020999998167;2494
196;0.6560537999998814;2494
197;0.6592091999996228;2494
198;0.6623397999996996;2493
199;0.6650952999998481;2493
200;0.6681784999996125;2493
201;0.671209899999667;2493
202;0.6742542999995749;2492
203;0.6771761999998489;2492
204;0.6807427999997344;2493
205;0.6847852999999304;2492
206;0.6884805999998207;2492
207;0.6913735999996788;2492
208;0.6943688999999722;2491
209;0.6973358999998709;2491
210;0.7003767999999582;2491
211;0.703355399999964;2490
212;0.7059983999997712;2490
213;0.7092456999998831;2490
214;0.7120390999998563;2489
215;0.7152046999999584;2489
216;0.7181977999998708;2489
217;0.7209749999997257;2489
218;0.7230075999996188;2488
219;0.7260376999997789;2488
220;0.7291611999999077;2488
221;0.73089439999967;2487
222;0.7330782999997609;2487
223;0.7359829999995782;2487
224;0.7380638999998155;2487
225;0.7410038999996686;2487
226;0.7440225999998802;2487
227;0.7622630999999274;2487
228;0.7847322999996322;2482
229;0.7869975999997223;2481
230;0.7889388999997209;2481
231;0.7911211999999068;2481
232;0.7993131999996876;2480
233;0.8021093999996083;2478
234;0.8051557999997385;2478
235;0.808033499999965;2477
236;0.8111085999998977;2477
237;0.8141157000000021;2476
238;0.8161058999999113;2475
239;0.8191271999999117;2474
240;0.8221179999995911;2473
241;0.8251087999997253;2473
242;0.8280737000000045;2472
243;0.8300997999999709;2472
244;0.8331397999995716;2471
245;0.8361493999996128;2470
246;0.8390506999999161;2470
247;0.8410544999997001;2469
248;0.8441000999996504;2469
249;0.8460795999999391;2468
250;0.8480366999997386;2468
251;0.8500693999999385;2467
252;0.8520696999999018;2467
253;0.8540335999996387;2467
254;0.856004099999609;2466
255;0.857845499999712;2466
256;0.8598753999999644;2466
257;0.8619895999995606;2465
258;0.8639327999999296;2465
259;0.8660767999999734;2464
260;0.868007999999918;2464
261;0.8699534999996104;2463
262;0.8721048999996128;2463
263;0.8739012999999431;2463
264;0.8774753999996392;2463
265;0.8802162999995744;2462
266;0.8832256999999117;2461
267;0.8865187999999762;2461
268;0.8903207999996994;2460
269;0.893174799999997;2459
270;0.8962821999998596;2459
271;0.8990969999999834;2458
272;0.900919199999862;2457
273;0.903120299999955;2457
274;0.9060209999997824;2457
275;0.9080846999995629;2456
276;0.911126499999682;2455
277;0.9129704999995738;2455
278;0.9150389999999788;2454
279;0.9170153000000028;2454
280;0.9190252999997028;2453
281;0.9210779000000002;2453
282;0.9230049999996481;2452
283;0.9250455999999758;2452
284;0.9270003999999972;2451
285;0.9289005999999063;2451
286;0.9309282999997777;2450
287;0.9330222999997204;2449
288;0.9360463999996682;2449
289;0.9380279999995764;2449
290;0.9400538999998389;2448
291;0.942022199999883;2448
292;0.9440262999996776;2447
293;0.94605619999993;2446
294;0.9480358999999225;2446
295;0.9500325999997585;2445
296;0.9520179999999527;2445
297;0.9540069999998195;2444
298;0.9559133999996448;2444
299;0.9590431999999964;2443
300;0.9620266999995692;2442
301;0.9640220999999656;2442
302;0.9660208999998758;2441
303;0.968018299999585;2440
304;0.9700315000000046;2440
305;0.9720130999999128;2439
306;0.9740082999996957;2439
307;0.9760131999996702;2438
308;0.9780358999996679;2437
309;0.979988499999763;2436
310;0.9819792999996935;2436
311;0.9839858999998796;2435
312;0.9859279999996033;2435
313;0.9878837999999632;2434
314;0.9899544999998398;2434
315;0.9918631999998979;2433
316;0.9940723999998227;2433
317;0.9958969999997862;2432
318;0.9980398999996396;2431
319;1.0000692999997227;2431
320;1.002071099999739;2430
321;1.004057499999817;2429
322;1.006228799999917;2428
323;1.0089733999998316;2428
324;1.0109090999999353;2427
325;1.013037599999734;2426
326;1.0160109999997076;2426
327;1.018056699999761;2425
328;1.021111799999744;2424
329;1.02418119999993;2423
330;1.0271420999997645;2422
331;1.0300478999997722;2421
332;1.0320433999995657;2421
333;1.0340498999999;2420
334;1.036044899999979;2419
335;1.038047899999583;2418
336;1.0400175999998282;2418
337;1.042030799999793;2418
338;1.0439638999996532;2417
339;1.0460581999996066;2416
340;1.0480608999996548;2415
341;1.050050199999987;2415
342;1.0520697999995718;2415
343;1.0540485999999873;2415
344;1.055967199999941;2414
345;1.0580707999997685;2414
346;1.060068699999647;2413
347;1.062066799999684;2413
348;1.0640713999996478;2412
349;1.0659739999996418;2411
350;1.0679995999998937;2411
351;1.0700176999998803;2410
352;1.0719038999995973;2410
353;1.0739670999996633;2409
354;1.075976399999945;2409
355;1.0779665000000023;2408
356;1.079966599999807;2408
357;1.0818782999999712;2407
358;1.084006899999622;2407
359;1.0859204999997019;2406
360;1.0880006999996112;2405
361;1.0899853999999323;2404
362;1.0920139999998355;2404
363;1.093977300000006;2403
364;1.0959571999997024;2403
365;1.0980400999997073;2402
366;1.10104949999959;2402
367;1.1030424999999013;2401
368;1.1051230999996733;2400
369;1.1071059999999306;2400
370;1.1090626999998676;2399
371;1.1110389999998915;2399
372;1.113069899999573;2398
373;1.115026299999954;2398
374;1.1170140999997784;2397
375;1.1190520999998625;2396
376;1.1209023999999772;2396
377;1.1230511999997361;2395
378;1.1250178999998752;2395
379;1.1270093999996789;2394
380;1.1290421999997307;2394
381;1.1310184999997546;2393
382;1.1330796999995982;2393
383;1.135031099999651;2392
384;1.136930399999983;2391
385;1.1390041999998175;2390
386;1.1410421999999016;2390
387;1.1429781999995612;2389
388;1.1460872999996354;2389
389;1.1490420000000086;2388
390;1.151047099999687;2388
391;1.153045299999576;2387
392;1.1550506999997197;2386
393;1.1573360999996112;2386
394;1.1601773999996112;2385
395;1.1630139999997482;2384
396;1.1650245999999242;2384
397;1.1669631999998273;2383
398;1.168967299999622;2383
399;1.170973899999808;2382
400;1.1729482999999163;2381
401;1.1749439999998685;2381
402;1.1769485999998324;2381
403;1.1789835999998104;2380
404;1.180935199999567;2380
405;1.1829279999997198;2379
406;1.1849308999999266;2379
407;1.1869380999996793;2378
408;1.189045999999962;2377
409;1.1909852999997383;2377
410;1.19302209999978;2376
411;1.1960996999996496;2376
412;1.1990931999998793;2374
413;1.2010443999997733;2374
414;1.2031041999998706;2373
415;1.2061135999997532;2373
416;1.2090556999996807;2373
417;1.2110287999998945;2372
418;1.21295149999969;2372
419;1.2148875999996562;2371
420;1.2168725999999879;2371
421;1.2189783999997417;2370
422;1.2208950999997796;2369
423;1.2229777999996259;2369
424;1.225038499999755;2368
425;1.2269063999997343;2368
426;1.228945500000009;2367
427;1.2310158999998748;2367
428;1.2330270999996173;2366
429;1.234994199999619;2366
430;1.2369824999996126;2366
431;1.2389194999996107;2365
432;1.2410410999996202;2365
433;1.2430160999997497;2365
434;1.2449539999997796;2364
435;1.2469865999996728;2364
436;1.248987599999964;2363
437;1.250952199999574;2363
438;1.2529155999995965;2362
439;1.254910099999961;2362
440;1.2568755999996029;2362
441;1.258852299999944;2361
442;1.260866999999962;2361
443;1.2628774999998313;2361
444;1.264851799999633;2361
445;1.2668560999995861;2360
446;1.2688664999996035;2360
447;1.27087819999997;2360
448;1.2730434999998579;2359
449;1.2749818999996023;2359
450;1.276978599999893;2358
451;1.2789473999996517;2358
452;1.2809089999996104;2358
453;1.2828844999999092;2357
454;1.2848980999997366;2357
455;1.2868727000000035;2357
456;1.288902099999632;2356
457;1.29085699999996;2356
458;1.2928279999996448;2356
459;1.2948509999996531;2356
460;1.296824099999867;2356
461;1.2988553999998658;2356
462;1.3008569999997235;2355
463;1.302882899999986;2355
464;1.304958099999567;2354
465;1.30695999999989;2354
466;1.3089115999996466;2354
467;1.3109385999996448;2353
468;1.3129031999997096;2353
469;1.314934799999719;2353
470;1.3169215999996595;2353
471;1.3188751999996384;2352
472;1.3209727999997085;2352
473;1.3229315999997198;2352
474;1.3249095999999554;2352
475;1.3268558999998277;2352
476;1.328852299999653;2352
477;1.3308506999997007;2351
478;1.3328490999997484;2351
479;1.3348490999997011;2351
480;1.3368587999998454;2351
481;1.3391537999996217;2350
482;1.341041999999561;2350
483;1.3442313999998987;2349
484;1.3472045999997135;2349
485;1.350235999999768;2349
486;1.353081199999906;2349
487;1.3550034999998388;2349
488;1.3570819999999912;2348
489;1.3600169999999707;2348
490;1.3620536999997057;2348
491;1.3653465999996115;2348
492;1.3696201999996447;2348
493;1.3735656999997445;2347
494;1.3774876999996195;2347
495;1.3816322999996373;2347
496;1.3854513999999654;2347
497;1.3898537999998553;2347
498;1.3936063999999533;2347
499;1.3976849999999104;2347
500;1.4014445999996497;2347
501;1.4056319999999687;2346
502;1.408411299999898;2346
503;1.4112769999997;2346
504;1.414210699999785;2346
505;1.4171041999998124;2346
506;1.4201827999995658;2346
507;1.4231983999998192;2346
508;1.4261742999997296;2346
509;1.4291193999997631;2346
510;1.432079799999883;2346
511;1.4355087999997522;2346
512;1.4385209999995823;2346
513;1.441102399999636;2346
514;1.4444674999999734;2346
515;1.4471050999995896;2346
516;1.4504795999996531;2346
517;1.4534255999997185;2346
518;1.456131799999639;2347
519;1.4591762999998537;2347
520;1.4621806999998626;2347
521;1.4651900999997451;2347
522;1.4682471999999507;2347
523;1.4712447999995675;2347
524;1.4742192999997314;2347
525;1.4773685999998634;2347
526;1.4803587999999763;2348
527;1.4837145999999848;2348
528;1.4877503999996406;2349
529;1.4912427999997817;2349
530;1.4941941999995834;2349
531;1.4972475999998096;2350
532;1.5002191999997194;2350
533;1.5032663999995748;2350
534;1.5073708999998416;2350
535;1.5106940999999097;2350
536;1.5146928999997726;2350
537;1.518744599999991;2350
538;1.522177499999998;2351
539;1.5251994999998715;2351
540;1.528521599999749;2351
541;1.5325568999996904;2351
542;1.5365465999998378;2352
543;1.5394244999997682;2352
544;1.5427220999999918;2352
545;1.546708999999737;2353
546;1.5506980999998632;2353
547;1.5547835999996096;2353
548;1.5576118999997561;2353
549;1.561595899999702;2354
550;1.565547499999866;2354
551;1.5695572999998149;2355
552;1.573417199999767;2355
553;1.5765096999998605;2356
554;1.5807928999997785;2356
555;1.584800499999801;2357
556;1.5887867999999798;2357
557;1.5927401999997528;2358
558;1.5967072999997072;2359
559;1.6006926000000021;2360
560;1.6047421999996914;2360
561;1.6075378999998975;2361
562;1.6118023999997604;2361
563;1.6157851999996637;2362
564;1.6198184999998375;2363
565;1.6233723999998801;2363
566;1.6277335999998286;2364
567;1.631719299999986;2365
568;1.6357904999999846;2366
569;1.63814579999962;2366
570;1.6410843999997269;2366
571;1.6443373999995856;2366
572;1.6470922999997128;2367
573;1.6501260999998522;2368
574;1.6531808999998248;2368
575;1.6561302000000069;2370
576;1.6590224999999919;2370
577;1.6620242999997572;2371
578;1.665064099999654;2372
579;1.6676119999997354;2372
580;1.6704580999999052;2373
581;1.6731847999999445;2373
582;1.6761507999999594;2374
583;1.6791480999995656;2374
584;1.6822199999996883;2375
585;1.6852278999999726;2376
586;1.6880553999999393;2377
587;1.6900480999997853;2378
588;1.6921590999995715;2379
589;1.6956904999997278;2379
590;1.6997357999998712;2380
591;1.703719899999669;2381
592;1.7076991999997517;2382
593;1.7117375999996511;2383
594;1.715734099999736;2385
595;1.7196075999995628;2386
596;1.7231944999998632;2387
597;1.7265819999997802;2388
598;1.7306434999995872;2388
599;1.7346412999995664;2390
600;1.7381274999997913;2390
601;1.7401852999996663;2391
602;1.7435724999995728;2392
603;1.7476814999999988;2393
604;1.7516320999998243;2394
605;1.7557233999996242;2395
606;1.759644699999626;2396
607;1.7636405999996896;2396
608;1.7676780999995572;2397
609;1.7706052999997155;2399
610;1.7746464999995624;2400
611;1.7786869999999908;2401
612;1.782649499999934;2402
613;1.7862050999997336;2403
614;1.789364399999613;2404
615;1.7936675999999352;2405
616;1.7976740999997673;2407
617;1.8011968999999226;2408
618;1.8042536999996628;2409
619;1.8073916999996982;2410
620;1.8103909999999814;2411
621;1.8134033999999701;2411
622;1.815991799999665;2412
623;1.8193999000000076;2413
624;1.8224322999999458;2414
625;1.8253701999997247;2415
626;1.8283697999995638;2416
627;1.8313513999996758;2417
628;1.8343642999998337;2418
629;1.8373866999995698;2418
630;1.8404132999999092;2419
631;1.8433617999999115;2421
632;1.846404999999777;2421
633;1.849415399999998;2422
634;1.8532419999996819;2423
635;1.8562079999996968;2424
636;1.859442499999659;2425
637;1.862321399999928;2426
638;1.865440099999887;2427
639;1.868396799999573;2428
640;1.8714411999999356;2428
641;1.8744056999998975;2429
642;1.877447299999858;2430
643;1.8804183999995985;2430
644;1.8833968999997523;2432
645;1.8874563999997918;2433
646;1.8904028999995717;2434
647;1.8934348999996473;2435
648;1.8972154999996746;2436
649;1.9008081999995738;2436
650;1.9047826999999415;2438
651;1.9076178999998774;2439
652;1.9112097999995967;2440
653;1.9147632999997768;2441
654;1.9187866999996004;2442
655;1.9229005999995934;2443
656;1.9262362999998004;2444
657;1.9307444999999461;2445
658;1.934710599999562;2446
659;1.9387307999995755;2447
660;1.9413864999996804;2448
661;1.944191299999602;2449
662;1.9477124000000003;2449
663;1.9517242999995688;2451
664;1.9558845999999903;2452
665;1.9591488999999456;2453
666;1.962232199999562;2453
667;1.9657084999998915;2454
668;1.9697848999999223;2455
669;1.9733111999998982;2457
670;1.9778556999999637;2458
671;1.9817818999999872;2459
672;1.9858236000000034;2460
673;1.9893041999998786;2461
674;1.992758099999719;2462
675;1.9968073000000004;2463
676;2.0007910999997875;2464
677;2.004438499999651;2465
678;2.0088308999997935;2466
679;2.0128240999997615;2467
680;2.0167610999997123;2468
681;2.0206641999998283;2469
682;2.024793199999749;2470
683;2.0287414999997964;2471
684;2.0327353999996376;2471
685;2.0365140999997493;2472
686;2.039079899999706;2473
687;2.0427114999997684;2473
688;2.0467334999998457;2474
689;2.0507871999998315;2474
690;2.054276399999708;2475
691;2.0573231999997006;2476
692;2.060468999999557;2476
693;2.063340100000005;2477
694;2.067497699999876;2477
695;2.07020059999968;2478
696;2.0731708999996954;2479
697;2.0765430999999808;2479
698;2.079555299999811;2480
699;2.083459699999821;2480
700;2.087481299999581;2481
701;2.0913950999997724;2482
702;2.0956817999999657;2482
703;2.0997151999999915;2483
704;2.103714999999738;2484
705;2.1075676999998905;2485
706;2.1117928999997275;2485
707;2.1158202999999958;2486
708;2.1198123999997733;2487
709;2.1233120999995663;2488
710;2.1278174999997646;2488
711;2.1318106999997326;2488
712;2.135764599999675;2489
713;2.13930259999961;2489
714;2.1422460999997384;2490
715;2.145152699999926;2490
716;2.1482286999998905;2490
717;2.152590799999871;2490
718;2.155193699999927;2491
