;time;amplitude
0;0.005329099999926257;2440
1;0.01027780000003986;2440
2;0.015049000000090018;2440
3;0.01916399999981877;2439
4;0.02423270000008415;2439
5;0.028749300000072253;2440
6;0.0327223999997841;2440
7;0.03678859999990891;2439
8;0.04083069999978761;2439
9;0.044758099999853584;2439
10;0.0490615999997317;2439
11;0.05290950000016892;2439
12;0.056431399999837595;2439
13;0.060970999999881315;2438
14;0.06489779999992606;2438
15;0.06894099999999526;2438
16;0.07237369999984367;2437
17;0.07588159999977506;2437
18;0.07989420000012615;2437
19;0.08384290000003602;2437
20;0.08799499999986438;2436
21;0.09161760000006325;2436
22;0.09572429999980159;2436
23;0.09974610000017492;2436
24;0.1027220999999372;2435
25;0.1064923999997518;2435
26;0.1109123000001091;2435
27;0.11489829999982248;2435
28;0.11886719999984052;2435
29;0.1224554000000353;2435
30;0.12688799999978073;2435
31;0.13087270000005446;2435
32;0.13493990000006306;2435
33;0.13832379999985278;2434
34;0.1413886000000275;2434
35;0.14438029999973878;2434
36;0.14739620000000286;2434
37;0.15087519999997312;2434
38;0.15492390000008527;2433
39;0.15884039999991728;2433
40;0.16283949999979086;2433
41;0.16685280000001512;2433
42;0.17087749999973312;2432
43;0.17483099999981278;2432
44;0.17889199999990524;2431
45;0.1827141999997366;2431
46;0.18681659999992917;2431
47;0.19063710000000356;2430
48;0.19464909999987867;2430
49;0.19839820000015607;2429
50;0.20163969999975961;2429
51;0.2054333000000952;2429
52;0.20877680000012333;2429
53;0.2128060000000005;2429
54;0.2163881000001311;2428
55;0.21979400000009264;2427
56;0.2237990999997237;2427
57;0.22780550000015864;2427
58;0.23164889999998195;2427
59;0.23460339999974167;2426
60;0.23846279999997932;2426
61;0.2427013999999872;2426
62;0.24646350000011807;2426
63;0.24932140000009895;2425
64;0.25232469999991736;2425
65;0.2553397000001496;2425
66;0.258563100000174;2425
67;0.26149720000012167;2424
68;0.26459669999985636;2424
69;0.26757920000000013;2424
70;0.2705799999998817;2423
71;0.2734682000000248;2423
72;0.2763082999999824;2423
73;0.27933589999975084;2422
74;0.28233460000001287;2422
75;0.28535920000012993;2421
76;0.28821659999994154;2421
77;0.2913895000001503;2421
78;0.29431479999993826;2420
79;0.2973274000000856;2420
80;0.30033339999999953;2419
81;0.3033031999998457;2419
82;0.30632999999988897;2419
83;0.30937059999996563;2418
84;0.31232520000003205;2418
85;0.31517840000014985;2418
86;0.3183163999997305;2417
87;0.321368099999745;2417
88;0.32408829999985755;2417
89;0.32726199999979144;2416
90;0.33037370000010924;2416
91;0.33336389999976745;2416
92;0.3363613000001351;2416
93;0.33937539999988076;2415
94;0.342330899999979;2415
95;0.3453361000001678;2415
96;0.34837500000003274;2414
97;0.35136000000011336;2414
98;0.3543353999998544;2413
99;0.35724660000005315;2413
100;0.3601648999997451;2413
101;0.36323289999972985;2412
102;0.3665962000000036;2412
103;0.37074829999983194;2412
104;0.3734381999997822;2411
105;0.37672810000003665;2411
106;0.38080390000004627;2411
107;0.384730799999943;2411
108;0.38839759999973467;2410
109;0.3917029999997794;2409
110;0.3958032999998977;2409
111;0.39973269999973127;2408
112;0.4037269999998898;2407
113;0.40653280000015;2407
114;0.40952659999993557;2407
115;0.412503900000047;2406
116;0.41556009999976595;2406
117;0.4182338999999047;2406
118;0.4213251000001037;2406
119;0.42441379999991113;2405
120;0.42741750000004686;2405
121;0.43041230000017094;2404
122;0.4336236999997709;2404
123;0.4374348999999711;2404
124;0.4404650000001311;2404
125;0.44344079999973474;2403
126;0.44641520000004675;2403
127;0.44928149999987;2402
128;0.4524437999998554;2402
129;0.45518829999991794;2401
130;0.45844110000007277;2401
131;0.46144139999978506;2401
132;0.4644048999998631;2400
133;0.46723870000005263;2399
134;0.4702376000000186;2399
135;0.4732672999998613;2398
136;0.47617559999980585;2398
137;0.47973610000008193;2398
138;0.48268929999994725;2398
139;0.48672480000004725;2397
140;0.4892193999999108;2397
141;0.49269730000014533;2396
142;0.4963623999997253;2396
143;0.4996562000001177;2395
144;0.5037051999997857;2394
145;0.5063743000000613;2394
146;0.5096546999998282;2393
147;0.5136591000000408;2393
148;0.5177373000001353;2393
149;0.521648599999935;2392
150;0.5255934000001616;2392
151;0.5284765999999763;2391
152;0.5315703999999641;2391
153;0.5345760999998674;2391
154;0.5373159999999189;2391
155;0.5403949999999895;2390
156;0.5433404999998857;2390
157;0.5463595000001078;2390
158;0.5494451999998091;2389
159;0.5524276000001009;2389
160;0.555134299999736;2389
161;0.5584208000000217;2388
162;0.5614185999997972;2388
163;0.5644324999998389;2388
164;0.5674242000000049;2388
165;0.5704236000001401;2387
166;0.5734272999998211;2387
167;0.5761803000000327;2387
168;0.5791660999998385;2387
169;0.5811413999999786;2386
170;0.5847032000001491;2386
171;0.5882234999999127;2385
172;0.5914659999998548;2385
173;0.5946598000000449;2384
174;0.598486899999898;2384
175;0.6014555000001565;2384
176;0.6044597000000067;2383
177;0.607472400000006;2383
178;0.6103527000000213;2383
179;0.6133789999998953;2383
180;0.6162412999997287;2383
181;0.619290799999817;2382
182;0.6223009999998794;2382
183;0.6253133999998681;2382
184;0.628284800000074;2382
185;0.6313114999998106;2382
186;0.6343253999998524;2382
187;0.6372591999997894;2381
188;0.6404521999997996;2381
189;0.643427900000006;2381
190;0.6464259999997921;2381
191;0.6494210999999268;2382
192;0.6524604000001091;2382
193;0.6552354999998897;2381
194;0.6584262999999737;2381
195;0.661418600000161;2381
196;0.6644316000001709;2381
197;0.667424199999914;2381
198;0.6704177999999956;2381
199;0.6734157000000778;2381
200;0.6764321999999083;2381
201;0.6794205999999576;2381
202;0.6824462999998104;2381
203;0.6851781000000301;2381
204;0.6881735000001754;2381
205;0.6911722999998346;2381
206;0.693432699999903;2381
207;0.6964398000000074;2380
208;0.6993827999999667;2380
209;0.7024373999997806;2380
210;0.7051888999999392;2380
211;0.7084389999999985;2380
212;0.7114301999999952;2379
213;0.7144487000000481;2379
214;0.7174592999999732;2379
215;0.7205040999997436;2379
216;0.7233634999997776;2379
217;0.7264169000000038;2378
218;0.7294235999997909;2378
219;0.7321004000000357;2379
220;0.7341175000001385;2378
221;0.7364207999999053;2378
222;0.739281199999823;2378
223;0.7422907999998642;2379
224;0.7453261000000566;2378
225;0.7482801999999538;2378
226;0.751372100000026;2378
227;0.7543348999997761;2378
228;0.7574534999998832;2378
229;0.7604296999998041;2378
230;0.7632901000001766;2378
231;0.7664598999999725;2378
232;0.7694287999997869;2378
233;0.7724281000000701;2378
234;0.7754199000000881;2378
235;0.7782145000001037;2378
236;0.7814235000000735;2378
237;0.7844452999997884;2379
238;0.7874218000001747;2379
239;0.7904238000000987;2378
240;0.7933953000001566;2379
241;0.7961449999997967;2379
242;0.7981469999999717;2379
243;0.8001506999999037;2379
244;0.8021410999999716;2379
245;0.8041815999999926;2379
246;0.8074275999997553;2379
247;0.8103990999998132;2379
248;0.8134064999999282;2379
249;0.8163995999998406;2379
250;0.8194251999998414;2380
251;0.8221032999999807;2380
252;0.8253473999998278;2380
253;0.8283968000000641;2380
254;0.831391899999744;2380
255;0.8344246999999996;2380
256;0.8374220999999125;2381
257;0.8402966999997261;2381
258;0.8432951999998295;2381
259;0.8462736000001314;2381
260;0.8492880999997396;2381
261;0.8522853999998006;2381
262;0.8551618999999846;2381
263;0.8584190000001399;2382
264;0.8614256000000751;2382
265;0.864422900000136;2382
266;0.8674241999997321;2382
267;0.8704259000001002;2383
268;0.8734211999999388;2383
269;0.8761967000000368;2383
270;0.8792057000000568;2383
271;0.8811067999999977;2383
272;0.8841985999997632;2383
273;0.8872034999999414;2384
274;0.8892111999998633;2384
275;0.8922105999999985;2384
276;0.8941796999997678;2384
277;0.896112599999924;2384
278;0.8992060000000492;2384
279;0.9012189000000035;2385
280;0.9040577000000667;2385
281;0.9060954000001402;2385
282;0.9080453000001398;2385
283;0.910015200000089;2385
284;0.9120711999999003;2385
285;0.9140947999999298;2386
286;0.916099099999883;2385
287;0.9180891999999403;2386
288;0.9212075999998888;2386
289;0.9241121000000021;2386
290;0.9276678000001084;2386
291;0.931750799999918;2386
292;0.9355700999999499;2387
293;0.9381988999998612;2387
294;0.9412662999998247;2387
295;0.9442410999999993;2387
296;0.9474166999998488;2387
297;0.9504203999999845;2387
298;0.953395300000011;2387
299;0.9563112000000729;2387
300;0.9593414000000848;2387
301;0.9623105000000578;2388
302;0.9653399999997418;2388
303;0.9681422999997267;2388
304;0.9703183999999965;2388
305;0.9734527999999045;2388
306;0.9764399999999114;2388
307;0.979454700000133;2388
308;0.9822135999997954;2389
309;0.9854721000001518;2389
310;0.9881104999999479;2389
311;0.9914521000000605;2389
312;0.9944491000001108;2390
313;0.9974686000000474;2390
314;1.0004484000000957;2391
315;1.0034483999997974;2391
316;1.0064582999998493;2392
317;1.0094451999998455;2392
318;1.0124621999998453;2392
319;1.0151534999999967;2393
320;1.0181610999998156;2393
321;1.0201308999999128;2394
322;1.0235324000000219;2394
323;1.0264369999999872;2395
324;1.029502500000035;2395
325;1.0324384999998983;2395
326;1.0354910000000928;2396
327;1.0381278999998358;2396
328;1.0414574000001267;2396
329;1.0444440999999642;2397
330;1.0474413000001732;2397
331;1.0504139999998188;2397
332;1.0534536000000116;2397
333;1.0563044000000446;2398
334;1.0592796000000817;2398
335;1.062323600000127;2398
336;1.0653238999998393;2398
337;1.0683337999998912;2399
338;1.0712210000001505;2399
339;1.0744220000001405;2399
340;1.077150999999958;2399
341;1.0792793999999049;2400
342;1.0824373999998897;2400
343;1.0854196999998749;2401
344;1.0880965000001197;2401
345;1.0914474999999584;2401
346;1.0953930999999102;2402
347;1.0984318999999232;2402
348;1.1014215999998669;2403
349;1.1045014000001174;2403
350;1.107427099999768;2403
351;1.1104227999999239;2404
352;1.113423100000091;2404
353;1.116431299999931;2404
354;1.1194298999998864;2404
355;1.1224380999997265;2405
356;1.1251901999999063;2405
357;1.1281705999999758;2406
358;1.130133499999829;2406
359;1.1321892000000844;2406
360;1.1354178000001411;2407
361;1.1381155999997645;2407
362;1.1414144999998825;2408
363;1.1444037999999637;2408
364;1.1473996999998235;2408
365;1.1504248000001098;2409
366;1.1534283999999388;2409
367;1.156423200000063;2409
368;1.1593926999998985;2409
369;1.162423199999921;2410
370;1.1653956999998627;2410
371;1.1684245000001283;2410
372;1.1711543000001257;2411
373;1.1742951999999605;2411
374;1.177306999999928;2411
375;1.180343399999856;2412
376;1.1832997000001342;2412
377;1.1863417999998092;2413
378;1.1894366000001355;2413
379;1.1924292999997306;2413
380;1.1954320999998345;2414
381;1.1984333000000333;2414
382;1.2014251000000513;2415
383;1.2044338999999127;2415
384;1.2074201000000357;2415
385;1.2104353999998239;2415
386;1.213424699999905;2415
387;1.2164213999999447;2415
388;1.2194190000000162;2416
389;1.2224253999997927;2416
390;1.2254358999998658;2416
391;1.228416500000094;2417
392;1.2314229999997224;2418
393;1.2342291999998452;2418
394;1.2371757999999318;2418
395;1.240182399999867;2418
396;1.2425265000001673;2418
397;1.2456732999999076;2419
398;1.2492394999999306;2419
399;1.2527083999998467;2420
400;1.2564864000000853;2420
401;1.2607293999999456;2420
402;1.264718399999765;2421
403;1.2687261999999464;2422
404;1.27235840000003;2422
405;1.2756626000000324;2423
406;1.2795929999997497;2423
407;1.2826967000000877;2424
408;1.2867584000000534;2424
409;1.2895218999997269;2425
410;1.2925457999999708;2426
411;1.2955901000000267;2426
412;1.2983322999998563;2426
413;1.3013323999998647;2426
414;1.304285499999878;2426
415;1.307223299999805;2427
416;1.3101553000001331;2427
417;1.3130938999997852;2427
418;1.3152145999997629;2427
419;1.3182127999998556;2427
420;1.3212177000000338;2428
421;1.324634099999912;2427
422;1.3273865999999543;2428
423;1.3300592999999026;2428
424;1.3321101000001363;2429
425;1.335417100000086;2429
426;1.3381329999997433;2429
427;1.3411074000000553;2429
428;1.3441963999998734;2429
429;1.3461262000000715;2430
430;1.3491211999998995;2430
431;1.3523497999999563;2431
432;1.3552457000000686;2431
433;1.3582833999998911;2431
434;1.3611182999998164;2431
435;1.3643428999998832;2431
436;1.367365399999926;2432
437;1.370475499999884;2432
438;1.3734402000000046;2432
439;1.3763146999999663;2433
440;1.379298800000015;2433
441;1.3821036999997887;2434
442;1.3853507999997419;2434
443;1.3883832000001348;2435
444;1.3912577000000965;2435
445;1.3942333999998482;2435
446;1.3972290000001522;2436
447;1.399248599999737;2436
448;1.401190399999905;2436
449;1.4031365000000733;2436
450;1.4061596999999892;2436
451;1.409099999999853;2436
452;1.411236099999769;2436
453;1.414225500000157;2437
454;1.4172173000001749;2437
455;1.419132399999853;2437
456;1.4221013000001221;2437
457;1.4241806999998516;2437
458;1.4261453999997684;2437
459;1.4290075999997498;2438
460;1.4312314999997398;2438
461;1.4331569000000854;2438
462;1.4360243999999511;2438
463;1.4380746000001636;2438
464;1.4402080999998361;2438
465;1.4421526000000995;2438
466;1.4442190999998274;2438
467;1.4461333999997805;2438
468;1.4481495999998515;2438
469;1.4512273000000278;2438
470;1.454168700000082;2438
471;1.4572183999998742;2438
472;1.460196200000155;2439
473;1.4625394999998207;2439
474;1.4654998999999407;2439
475;1.4683092999998735;2439
476;1.4712476999998216;2439
477;1.4742126999999527;2439
478;1.4771756000000096;2439
479;1.4802734999998393;2440
480;1.4833250000001499;2440
481;1.486506400000053;2440
482;1.4892909999998665;2440
483;1.4924485000001368;2440
484;1.4953314999997929;2440
485;1.4983376999998654;2440
486;1.5013601000000563;2440
487;1.504398499999752;2440
488;1.5073724999997467;2440
489;1.51032639999994;2440
490;1.5133287999997265;2440
491;1.516363100000035;2440
492;1.5193186999999853;2440
493;1.5224981000001208;2441
494;1.5253609000001234;2441
495;1.5284630999999536;2441
496;1.5314296999999897;2441
497;1.5341376999999738;2441
498;1.537322099999983;2441
499;1.5405181000000994;2441
500;1.5433677000000898;2441
501;1.5463174000001345;2441
502;1.549471899999844;2441
503;1.5523229000000356;2441
504;1.555345799999941;2441
505;1.5583314000000428;2441
506;1.5610836999999265;2441
507;1.5641630000000077;2441
508;1.566106299999774;2441
509;1.568142699999953;2441
510;1.5702832000001763;2441
511;1.5735098000000107;2441
512;1.5764660999998341;2441
513;1.579316899999867;2441
514;1.5823061000000962;2441
515;1.58517669999992;2441
516;1.588124500000049;2440
517;1.591107700000066;2440
518;1.5931768000000375;2440
519;1.5950088999998115;2440
520;1.597075600000153;2440
521;1.599034599999868;2440
522;1.6009884000000056;2441
523;1.603169699999853;2440
524;1.6050190999999359;2440
525;1.6071676999999909;2440
526;1.6100550000001022;2440
527;1.612157600000046;2440
528;1.614141699999891;2439
529;1.6160657000000356;2439
530;1.6181000999999924;2439
531;1.6202084999999897;2439
532;1.6219915000001492;2439
533;1.624213999999938;2439
534;1.6262050999998792;2439
535;1.6290475999999217;2439
536;1.6312262000001283;2439
537;1.633219299999837;2440
538;1.6352068999999574;2439
539;1.6380862000000889;2439
540;1.6402321000000484;2439
541;1.6431109999998625;2439
542;1.64624509999976;2440
543;1.6492405999997573;2439
544;1.6511068999998315;2439
545;1.6532115999998496;2439
546;1.6561040000001412;2439
547;1.6582048000000214;2439
548;1.6601556999999048;2439
549;1.6630295999998452;2439
550;1.6652381999997488;2439
551;1.667195399999855;2438
552;1.670138599999973;2438
553;1.672234799999842;2438
554;1.6740916999997353;2438
555;1.6761477000000014;2438
556;1.6780846000001475;2438
557;1.6802099999999882;2438
558;1.6832874000001539;2438
559;1.6851102000000537;2437
560;1.688037699999768;2437
561;1.6912781000000905;2437
562;1.6942175999997744;2437
563;1.696096000000125;2437
564;1.6980914000000666;2437
565;1.7000136999999995;2437
566;1.7021678999999494;2437
567;1.7050859000000855;2436
568;1.7081764999998086;2436
569;1.710080100000141;2436
570;1.7121805000001586;2436
571;1.7140912999998363;2436
572;1.716086599999926;2436
573;1.7180511999999908;2436
574;1.7200663999997232;2436
575;1.7222240999999485;2435
576;1.7241510999997445;2435
577;1.726157499999772;2435
578;1.7291916999997738;2435
579;1.731102799999917;2435
580;1.734200200000032;2435
581;1.7371941999999763;2435
582;1.7408611999999266;2434
583;1.745023399999809;2434
584;1.7483198999998422;2434
585;1.7514218999999684;2434
586;1.754555800000162;2434
587;1.7576439999998001;2434
588;1.7604166000000987;2434
589;1.763303299999734;2434
590;1.7663441999998213;2433
591;1.7693451000000096;2433
592;1.7722693999999137;2433
593;1.775378499999988;2432
594;1.7783392000001186;2432
595;1.78146310000011;2432
596;1.7841662000000724;2432
597;1.7871856000001571;2431
598;1.7901857000001655;2431
599;1.792261199999757;2430
600;1.7941486999998233;2430
601;1.7973054999997657;2430
602;1.8000778999999056;2430
603;1.8032988999998452;2430
604;1.8073544999997466;2430
605;1.8102991000000657;2429
606;1.813037699999768;2429
607;1.8154417000000649;2429
608;1.8181885999997576;2428
609;1.8210828999999649;2428
610;1.8234902999997757;2428
611;1.8264969000001656;2428
612;1.8291880000001584;2427
613;1.8322184999997262;2426
614;1.8340629999997873;2426
615;1.8361856999999873;2426
616;1.838049399999818;2426
617;1.8399645999998029;2426
618;1.842207099999996;2425
619;1.844106600000032;2425
620;1.8461991999997736;2425
621;1.8481050000000323;2425
622;1.8500341999997545;2424
623;1.852155799999764;2424
624;1.855161699999826;2424
625;1.8570838999999069;2424
626;1.8592011000000639;2424
627;1.8622015999999348;2423
628;1.8657333000001017;2423
629;1.869808699999794;2423
630;1.8738153999997849;2422
631;1.8766617000001133;2422
632;1.8795240999997986;2422
633;1.8823508999998921;2421
634;1.885340400000132;2421
635;1.8882082999998602;2421
636;1.8911020999998982;2420
637;1.893092499999966;2420
638;1.895111100000122;2420
639;1.8981072000001404;2420
640;1.9014698999999382;2420
641;1.9042703000000074;2419
642;1.9072636000000784;2419
643;1.91026839999995;2419
644;1.9133057999997618;2419
645;1.9164233000001332;2418
646;1.9193162999999913;2418
647;1.922398599999724;2418
648;1.9251823999998123;2417
649;1.9282849000001079;2417
650;1.9314186000001428;2417
651;1.9343294999998761;2416
652;1.9373765000000276;2416
653;1.9403134999997746;2416
654;1.9432309999997415;2416
655;1.9463035999997373;2415
656;1.949428800000078;2415
657;1.9523494999998547;2414
658;1.9553070000001753;2413
659;1.9584521000001587;2413
660;1.9613147999998546;2413
661;1.9644518000000062;2413
662;1.9673271999999997;2412
663;1.970051599999806;2412
664;1.9721854999997959;2411
665;1.9743115000001126;2411
666;1.9772972000000664;2411
667;1.9801867000001039;2411
668;1.9836375999998381;2410
669;1.986142899999777;2409
670;1.9893566999999166;2409
671;1.9924480999998195;2409
672;1.9953264999999192;2408
673;1.9984780999998293;2408
674;2.0012951999997313;2408
675;2.0041290999997727;2407
676;2.0071121000000858;2407
677;2.0092908999999963;2406
678;2.012410700000146;2406
679;2.015278500000022;2406
680;2.0181382999999187;2405
681;2.0201544999999896;2405
682;2.0237151000001177;2405
683;2.0261421999998674;2404
684;2.028279499999826;2404
685;2.0310119999999188;2404
686;2.033160599999974;2404
687;2.0351995999999417;2404
688;2.0380645000000186;2403
689;2.040261499999815;2403
690;2.0432001999997738;2403
691;2.046186999999918;2403
692;2.049199000000044;2403
693;2.051161299999876;2402
694;2.0531169999999292;2402
695;2.056222700000035;2401
696;2.058085900000151;2401
697;2.0601824000000306;2401
698;2.0632276000001184;2400
699;2.0650915000001078;2400
700;2.0671916999999667;2400
701;2.069227899999987;2400
702;2.072058599999764;2399
703;2.0740820999999414;2399
704;2.0762494000000515;2399
705;2.078226799999811;2398
706;2.0799902999997357;2398
707;2.0832328999999845;2398
708;2.0852006999998594;2398
709;2.0872263000001112;2397
710;2.0891704999999092;2397
711;2.0911363999998684;2397
712;2.094239900000048;2397
713;2.097228499999801;2397
714;2.0990840999998;2396
715;2.101190299999871;2396
716;2.1041943000000174;2396
717;2.1060535999999956;2395
