;time;amplitude
0;0.0035810000003948517;2396
1;0.006255900000269321;2396
2;0.009223900000051799;2397
3;0.012455800000225281;2397
4;0.015369900000223424;2398
5;0.01831030000039391;2398
6;0.02100830000017595;2399
7;0.024335600000085833;2399
8;0.02714830000013535;2399
9;0.030279200000222772;2400
10;0.0332988000000114;2400
11;0.03645660000029238;2401
12;0.03918020000037359;2401
13;0.0421808000000965;2402
14;0.04526490000034755;2403
15;0.048285200000009354;2403
16;0.05135289999998349;2403
17;0.055180700000164506;2403
18;0.05863110000018423;2404
19;0.06279880000010962;2404
20;0.06630020000011427;2405
21;0.06944910000038362;2405
22;0.07332320000023174;2406
23;0.07648710000012215;2407
24;0.07930620000024646;2407
25;0.08210540000027322;2407
26;0.08538560000033613;2407
27;0.08799540000018169;2408
28;0.09111960000018371;2408
29;0.09427570000025298;2409
30;0.09773390000009385;2409
31;0.10172450000027311;2410
32;0.10511889999997948;2411
33;0.10862380000025951;2411
34;0.11246630000005098;2411
35;0.11631080000006477;2412
36;0.12024860000019544;2413
37;0.12326610000036453;2413
38;0.12730750000037006;2414
39;0.130622200000289;2414
40;0.13458950000040204;2414
41;0.1381763000003957;2415
42;0.14231289999997898;2415
43;0.14659750000009808;2415
44;0.15059420000034152;2416
45;0.1535623000004307;2416
46;0.15613960000018778;2417
47;0.1596107000000302;2417
48;0.16351870000016788;2417
49;0.16750990000036836;2418
50;0.17108850000022358;2418
51;0.17437000000018088;2419
52;0.1775300000003881;2419
53;0.1812343999999939;2420
54;0.18417410000029122;2420
55;0.1871462000003703;2421
56;0.19035260000009657;2421
57;0.1943316000001687;2421
58;0.1975180000004002;2422
59;0.20032520000040677;2422
60;0.20322490000035032;2423
61;0.20596550000027491;2423
62;0.2090407000000596;2424
63;0.2122074000003522;2424
64;0.21521490000031918;2424
65;0.2182122000003801;2425
66;0.2208517000003667;2425
67;0.2239215000004151;2425
68;0.22593870000036986;2426
69;0.22939160000032643;2426
70;0.23237790000030145;2426
71;0.23542889999998806;2427
72;0.2379123000000618;2427
73;0.2415014000002884;2428
74;0.24443560000008802;2429
75;0.2473336000002746;2429
76;0.2503724000002876;2429
77;0.2536198000002514;2430
78;0.2565113000000565;2430
79;0.26060740000002625;2430
80;0.2644161000002896;2431
81;0.26759420000007594;2431
82;0.2710527000003822;2432
83;0.2740920000001097;2432
84;0.2773130000000492;2432
85;0.28142079999997804;2432
86;0.28420360000018263;2433
87;0.28728250000040134;2433
88;0.29108460000043124;2434
89;0.29461250000031214;2434
90;0.29733270000042467;2435
91;0.30027130000007674;2435
92;0.30323070000031294;2435
93;0.30599030000030325;2436
94;0.3078397000003861;2436
95;0.3099509000003309;2437
96;0.3130651999999827;2437
97;0.31617210000013074;2437
98;0.3190650999999889;2437
99;0.32191499999998996;2438
100;0.3249996000004103;2438
101;0.3273658000002797;2438
102;0.33035530000006474;2438
103;0.3333784999999807;2439
104;0.33600950000027296;2439
105;0.33931610000036017;2440
106;0.3421824000001834;2440
107;0.3453090000002703;2441
108;0.3484733000000233;2441
109;0.3511883000001035;2442
110;0.3540388000001258;2442
111;0.3569953000001078;2442
112;0.3603624000002128;2442
113;0.36305490000040663;2442
114;0.36611460000040097;2442
115;0.36932930000011766;2443
116;0.3723445000000538;2443
117;0.3750082999999904;2443
118;0.37828810000019075;2444
119;0.38115930000003573;2444
120;0.3841941000000588;2444
121;0.38714450000043144;2444
122;0.39026060000014695;2444
123;0.39301800000021103;2444
124;0.39661530000012135;2444
125;0.3995313000000351;2444
126;0.40241180000020904;2445
127;0.4053563000002214;2445
128;0.4078972000002068;2445
129;0.4110231000004205;2445
130;0.41412990000026184;2445
131;0.4171113000002151;2445
132;0.42021020000038334;2445
133;0.4239055000002736;2445
134;0.4258836000003612;2445
135;0.4280112999999801;2445
136;0.43006900000000314;2445
137;0.4329658000001473;2446
138;0.43645920000017213;2446
139;0.4393038000002889;2446
140;0.44200820000014573;2446
141;0.44426770000018223;2446
142;0.4471230000003743;2446
143;0.45015690000036557;2446
144;0.4531467000001612;2446
145;0.45527210000000196;2445
146;0.4579497000004267;2446
147;0.4598754000003282;2446
148;0.46228160000009666;2446
149;0.46555990000024394;2446
150;0.4692456000002494;2446
151;0.4724407000003339;2445
152;0.4749689000000217;2445
153;0.4771819000002324;2445
154;0.4801201000000219;2445
155;0.48318570000037653;2445
156;0.4861238000003141;2445
157;0.4894437000002654;2445
158;0.49224020000019664;2445
159;0.49513930000011896;2445
160;0.49826430000030086;2445
161;0.5012005000003228;2445
162;0.5040218000003733;2445
163;0.5072648000000299;2445
164;0.5101283000003605;2445
165;0.5131944000004296;2445
166;0.5160931000000346;2445
167;0.5192207000000053;2445
168;0.5220086000003903;2445
169;0.5250980000000709;2445
170;0.5282174000003579;2446
171;0.5312456000001475;2445
172;0.5341605000003256;2445
173;0.5370981000000938;2445
174;0.540094400000271;2445
175;0.5431709000004048;2445
176;0.54622930000005;2445
177;0.5491431000000375;2445
178;0.55226520000042;2445
179;0.5549895000003744;2445
180;0.5582338000003801;2445
181;0.5611195999999836;2445
182;0.5641162000001714;2445
183;0.5671489000001202;2445
184;0.570013900000049;2445
185;0.5719144000004235;2445
186;0.5740106000002925;2445
187;0.57721760000004;2445
188;0.5804010000001654;2445
189;0.583195700000033;2445
190;0.5862497000002804;2445
191;0.5890804000000571;2445
192;0.5925125000003391;2445
193;0.5964806000001772;2445
194;0.6005774000000201;2445
195;0.6041857000000164;2445
196;0.6070400000003247;2445
197;0.6092187000003833;2444
198;0.6120576000002984;2444
199;0.615183800000068;2444
200;0.6182080000003225;2444
201;0.6208073000002514;2444
202;0.6231128000003991;2444
203;0.6261366000003363;2444
204;0.6288391000002775;2444
205;0.6321501000002172;2443
206;0.635189800000262;2443
207;0.6380386000000726;2443
208;0.6409893000000011;2443
209;0.6429060000000391;2443
210;0.6448549000001549;2443
211;0.6469469000003301;2443
212;0.6501018000003569;2443
213;0.6532249000001684;2442
214;0.6560362000000168;2442
215;0.6579302000000098;2442
216;0.6598130000002129;2442
217;0.6619413000003078;2442
218;0.6650254000001041;2442
219;0.6681472000000213;2441
220;0.6708557000001747;2441
221;0.6740938000002643;2441
222;0.6769868000001225;2441
223;0.6789333000001534;2441
224;0.6809479000003194;2441
225;0.6843017000001055;2441
226;0.6870244000001549;2441
227;0.690057500000421;2440
228;0.6929585000002589;2440
229;0.6948461000001771;2440
230;0.6983299000003171;2440
231;0.7011943000002248;2440
232;0.7040183000003708;2439
233;0.707100900000114;2439
234;0.7100156999999854;2439
235;0.7120769000002838;2439
236;0.7152949000001172;2438
237;0.7181963000002725;2438
238;0.7209436000002825;2438
239;0.7240414000002602;2437
240;0.7270011000000522;2437
241;0.728978200000256;2437
242;0.7323834000003444;2436
243;0.7355340000003707;2436
244;0.7383427000004303;2436
245;0.7410085999999865;2436
246;0.7429475000003549;2436
247;0.746045000000322;2436
248;0.7489356000000953;2435
249;0.7512532000000647;2435
250;0.7538726000002498;2435
251;0.7570355000002564;2435
252;0.7589320000001862;2435
253;0.7609044000000722;2435
254;0.7629369000001134;2434
255;0.7651789999999892;2434
256;0.7681536000000051;2434
257;0.7701077000001533;2434
258;0.7729370000001836;2433
259;0.7749552000000222;2433
260;0.776904100000138;2433
261;0.7789209000002302;2433
262;0.7820651000001817;2433
263;0.78509030000032;2433
264;0.7885564000002887;2433
265;0.7910302000000229;2432
266;0.7929963000001408;2432
267;0.7948744000000261;2432
268;0.7969052000003103;2432
269;0.7991813000003276;2432
270;0.8021281000001181;2432
271;0.805352700000185;2431
272;0.8080125000001317;2431
273;0.810002500000337;2431
274;0.8118594000002304;2431
275;0.8144388000000617;2430
276;0.817394400000012;2430
277;0.8201154000003044;2430
278;0.8231387000000723;2430
279;0.8259107000003496;2430
280;0.8279892000000473;2429
281;0.8299141000002237;2429
282;0.8331613000000289;2429
283;0.8361659000001964;2428
284;0.8392777000003662;2428
285;0.8419410000001335;2428
286;0.8439232000000629;2428
287;0.8459070000003521;2428
288;0.8492998000001535;2427
289;0.8521255000000565;2427
290;0.8554622000001473;2427
291;0.8579590000003918;2426
292;0.8599287000001823;2426
293;0.8618983000001208;2425
294;0.8641939000003731;2425
295;0.8671032000002015;2425
296;0.8699037000001226;2424
297;0.8729296000001341;2424
298;0.8749672000003557;2424
299;0.8769689000000653;2423
300;0.8788784000003034;2423
301;0.882156600000144;2423
302;0.8852914000003693;2423
303;0.8882819000000381;2422
304;0.8909907000002022;2422
305;0.892939600000318;2421
306;0.895002900000236;2421
307;0.8980705000003582;2421
308;0.9010563000001639;2420
309;0.9039167000000816;2420
310;0.9070245000002615;2419
311;0.909950800000388;2419
312;0.9119389000002229;2419
313;0.9151813000003131;2419
314;0.9180002000002787;2418
315;0.9210406000001967;2418
316;0.9240228000003299;2418
317;0.9273642000002837;2417
318;0.9304629000002933;2417
319;0.9343311000002359;2416
320;0.9372893000004296;2416
321;0.9400235000002795;2416
322;0.9433719000003293;2416
323;0.9475575999999819;2415
324;0.9515355000003183;2414
325;0.9554641000004267;2414
326;0.9580033000002004;2413
327;0.9608616000000438;2413
328;0.9642690000000584;2412
329;0.9671910000001844;2411
330;0.9704922000000806;2411
331;0.973004000000401;2410
332;0.9749681000002965;2410
333;0.976929100000234;2409
334;0.9804504000003362;2409
335;0.9833448000003955;2408
336;0.9873458000001847;2408
337;0.990028500000335;2407
338;0.9923146000000997;2406
339;0.9953540999999859;2406
340;0.9990225999999893;2406
341;1.002169600000343;2405
342;1.0053148000001784;2405
343;1.0079757000003156;2405
344;1.0099343000001682;2405
345;1.0119440000003124;2405
346;1.0145047000000886;2404
347;1.0172710000001643;2404
348;1.0201773000003413;2403
349;1.0229831000001468;2403
350;1.0261709000001247;2403
351;1.0290903000000071;2402
352;1.0319244000002072;2402
353;1.035268300000098;2402
354;1.0382195000001957;2402
355;1.041129700000056;2401
356;1.0441254000002118;2401
357;1.047526000000289;2401
358;1.0516139000001203;2401
359;1.056022600000233;2400
360;1.0595844000004035;2400
361;1.0640001000001575;2399
362;1.068850999999995;2399
363;1.0722458000000188;2398
364;1.0752653000004102;2397
365;1.078479900000275;2397
366;1.0825085000001309;2396
367;1.0864880000003723;2396
368;1.0890465000002223;2395
369;1.092418700000053;2395
370;1.0955122000000301;2394
371;1.0985214000002088;2394
372;1.1015180000003966;2394
373;1.1050907000003463;2393
374;1.1080117000001337;2393
375;1.1113540000001194;2392
376;1.1155725000003258;2392
377;1.1195798000003379;2392
378;1.1225373000002037;2391
379;1.1253477000000203;2391
380;1.1283385000001545;2390
381;1.1313405000000785;2389
382;1.135418800000025;2389
383;1.1393882000002122;2389
384;1.142268100000365;2388
385;1.1452970000000278;2388
386;1.148302600000079;2387
387;1.1512910999999804;2387
388;1.154036900000392;2386
389;1.1573707000002287;2386
390;1.1603582000002461;2385
391;1.1633664000000863;2385
392;1.1663279000003968;2384
393;1.1691420000001926;2384
394;1.1721681000003628;2384
395;1.1752142000000276;2383
396;1.1782421000002614;2383
397;1.181277300000147;2383
398;1.1842768999999862;2382
399;1.1881302000001597;2382
400;1.1912320999999793;2381
401;1.1942699000001085;2381
402;1.1971204000001308;2380
403;1.2001224000000548;2380
404;1.2032645000003868;2380
405;1.2061209000003146;2380
406;1.2091228000003866;2380
407;1.2121420000003127;2379
408;1.2150362000002133;2379
409;1.2179947000004177;2379
410;1.2209712000003492;2379
411;1.224521800000275;2378
412;1.2284569000003103;2379
413;1.232495000000199;2378
414;1.235024400000384;2378
415;1.2381036000001586;2378
416;1.2413399000001846;2378
417;1.245467500000359;2378
418;1.2483138000002327;2377
419;1.251414400000158;2377
420;1.254062100000283;2377
421;1.2570997000002535;2377
422;1.2602472000003218;2377
423;1.2631297000002633;2376
424;1.2663727000003746;2376
425;1.269182600000022;2376
426;1.2720064000000093;2375
427;1.2750251000002208;2375
428;1.2781812000002901;2375
429;1.281396400000176;2375
430;1.2841798000004019;2375
431;1.2871814000000086;2375
432;1.2900431000002754;2375
433;1.2919424000001527;2375
434;1.2938803000001826;2375
435;1.2963451000000532;2375
436;1.2990930000000844;2374
437;1.3020640000004278;2374
438;1.3050007000001642;2374
439;1.306965400000081;2374
440;1.3089562000000114;2374
441;1.3119959000000563;2374
442;1.315157100000306;2373
443;1.3183238000001438;2374
444;1.320900800000345;2373
445;1.3229963000003409;2374
446;1.325886100000389;2374
447;1.327980700000353;2374
448;1.330994400000236;2374
449;1.334084300000086;2374
450;1.3371016000000964;2374
451;1.3400572000000466;2374
452;1.3430530000000545;2374
453;1.344842299999982;2375
454;1.347026100000221;2374
455;1.350140100000317;2374
456;1.3531777000002876;2374
457;1.356035200000406;2374
458;1.3589926000004198;2374
459;1.3608220000000983;2374
460;1.363143200000195;2374
461;1.3663440000000264;2374
462;1.3694102000004023;2374
463;1.371924300000046;2374
464;1.3739901000003556;2374
465;1.37688210000033;2374
466;1.379015800000161;2374
467;1.3820916000004217;2373
468;1.3853686000002199;2374
469;1.387974100000065;2374
470;1.3900157000002764;2374
471;1.3928954000002705;2374
472;1.3950128999999833;2374
473;1.3981408000004194;2374
474;1.4011333000003106;2374
475;1.4040079000001242;2374
476;1.4060298000003968;2374
477;1.4089677000001757;2374
478;1.4109626000004027;2374
479;1.4139828000002126;2374
480;1.4170474000002287;2374
481;1.4201151000002028;2374
482;1.4220307000000503;2374
483;1.4239676000001964;2374
484;1.427231699999993;2375
485;1.4300987999999961;2375
486;1.4330967000000783;2375
487;1.436243000000104;2375
488;1.4379582000001392;2375
489;1.4409497000001465;2375
490;1.444152700000359;2376
491;1.447014300000319;2376
492;1.4491193000003477;2376
493;1.45202560000007;2376
494;1.4539173000002847;2376
495;1.4559723000002123;2376
496;1.4579615000002377;2376
497;1.4599686999999903;2376
498;1.464217600000211;2376
499;1.4673652000001312;2377
500;1.4703338000003896;2377
501;1.473015800000212;2377
502;1.4749258000001646;2377
503;1.4768399000004138;2377
504;1.4802086000004238;2377
505;1.4832453000003625;2377
506;1.4863930000001346;2377
507;1.4890027999999802;2377
508;1.4909451000003173;2377
509;1.4928608000000168;2377
510;1.4949940000001334;2377
511;1.498370100000102;2377
512;1.5024091000000226;2377
513;1.5050684000002548;2378
514;1.507887700000083;2378
515;1.511333000000377;2378
516;1.5142649000003985;2378
517;1.5171690000001945;2378
518;1.5202734000004057;2378
519;1.5230701000000408;2378
520;1.5259987000004003;2378
521;1.5278527000000395;2379
522;1.531350200000361;2379
523;1.534471900000426;2379
524;1.5372826000002533;2379
525;1.5400186000001668;2379
526;1.5430043000001206;2379
527;1.5449655000002167;2379
528;1.5484103000003415;2379
529;1.5513732000003984;2379
530;1.5550725000002785;2379
531;1.5579232000000047;2380
532;1.5601486000000477;2380
533;1.5631771000003027;2380
534;1.5661199000001034;2381
535;1.5692148000002817;2381
536;1.5721222000001944;2381
537;1.5749060000002828;2381
538;1.5771113000000696;2381
539;1.5801547000000937;2382
540;1.583159600000272;2382
541;1.586214700000255;2382
542;1.589041400000042;2382
543;1.5910940000003393;2383
544;1.593956100000014;2383
545;1.5972209999999905;2383
546;1.6001651000001402;2383
547;1.603072400000201;2384
548;1.6050104000000829;2384
549;1.60686910000004;2384
550;1.6088594000002558;2384
551;1.6109917000003406;2385
552;1.6139047000001483;2385
553;1.6159866000002694;2385
554;1.6191326000002846;2386
555;1.6220963000000665;2386
556;1.6250293000002785;2386
557;1.6280012000001989;2387
558;1.631384700000126;2387
559;1.634464200000366;2387
560;1.6373013000002175;2387
561;1.6400171000000228;2388
562;1.6434285000000273;2388
563;1.646473700000115;2388
564;1.6495056000003387;2389
565;1.6524112000001878;2389
566;1.65493110000034;2390
567;1.6569821000002776;2390
568;1.6589649000002282;2390
569;1.6622171000003618;2390
570;1.6652035000001888;2391
571;1.668437200000426;2391
572;1.6710103000000345;2391
573;1.6740076000000954;2392
574;1.6772788000002947;2392
575;1.681276500000422;2393
576;1.6842340000002878;2393
577;1.6871746000001622;2393
578;1.6899708000000828;2393
579;1.6919655000001512;2394
580;1.694951100000253;2394
581;1.698122400000102;2395
582;1.7009869000003164;2395
583;1.7038534000002983;2396
584;1.7071543000001839;2396
585;1.7101430000002438;2396
586;1.7131519000004118;2396
587;1.7159536000003754;2397
588;1.7191415000002053;2397
589;1.7220470000002024;2398
590;1.723983600000338;2398
591;1.7258961000002273;2398
592;1.728311400000166;2398
593;1.7309566000003542;2399
594;1.7330425000000105;2399
595;1.7348804000002929;2399
596;1.736949700000423;2399
597;1.7389421000002585;2400
598;1.7408989000000474;2400
599;1.742878500000188;2400
600;1.7449007000000165;2401
601;1.7480490000002646;2401
602;1.7510519000002205;2401
603;1.7539919000000737;2402
604;1.7569096000001991;2402
605;1.759078000000045;2403
606;1.7619421000003967;2403
607;1.7640682000001107;2403
608;1.7659096000002137;2403
609;1.7679107000003569;2403
610;1.77032410000038;2404
611;1.773036100000354;2404
612;1.7761145000004035;2404
613;1.7778909000003296;2405
614;1.7803185000002486;2405
615;1.7834559000002628;2406
616;1.7864779999999882;2406
617;1.7890245000003233;2406
618;1.7920588000001771;2406
619;1.7939647000002878;2407
620;1.7971612000001187;2407
621;1.8001842000003307;2407
622;1.8031637000003684;2408
623;1.8049693000002662;2408
624;1.806948100000227;2408
625;1.8088598000003913;2409
626;1.8121148000000176;2409
627;1.8150917000002664;2409
628;1.8179380999999921;2410
629;1.819933800000399;2410
630;1.8219026000001577;2410
631;1.8239432000000306;2411
632;1.8271980000004078;2411
633;1.83026480000035;2411
634;1.8329811000003247;2412
635;1.8361256000002868;2412
636;1.837945000000218;2413
637;1.8411480000004303;2413
638;1.8442822000001797;2413
639;1.8471417000000656;2414
640;1.8501353999999992;2414
641;1.853254100000413;2414
642;1.8559940000000097;2415
643;1.8579187000000275;2415
644;1.8611094000002595;2416
645;1.8641285000003336;2416
646;1.866935900000044;2417
647;1.8692128000002413;2418
648;1.8721330000003036;2418
649;1.8750690000001669;2418
650;1.8768780000000334;2419
651;1.8789559000001645;2419
652;1.8808833000002778;2419
653;1.882950200000323;2419
654;1.8850082000003567;2420
655;1.8869320000003427;2420
656;1.889998800000285;2420
657;1.892016500000409;2420
658;1.8939987000003384;2421
659;1.8961585000001833;2421
660;1.899252400000023;2421
661;1.9020440000003873;2421
662;1.90505260000009;2422
663;1.9082184000003508;2422
664;1.9111781999999948;2423
665;1.9140214000003652;2423
666;1.9171643000004224;2424
667;1.9200574999999844;2424
668;1.9219436000003043;2424
669;1.925114399999984;2425
670;1.9279728000001342;2425
671;1.9300100000000384;2425
672;1.9319949000000634;2426
673;1.9340879000001223;2426
674;1.9370069999999942;2426
675;1.9405478000003313;2426
676;1.9447132000000238;2427
677;1.9484722000001966;2427
678;1.9526466000002074;2428
679;1.955462400000215;2428
680;1.9581323000002158;2428
681;1.961239100000057;2429
682;1.9641558000002988;2429
683;1.96704310000041;2430
684;1.969969900000251;2430
685;1.9731910000000425;2430
686;1.9761020000000826;2431
687;1.9791695000003529;2431
688;1.9823033000002397;2431
689;1.9851706000004015;2432
690;1.988073600000007;2432
691;1.9900092000002587;2432
692;1.9930662000001576;2433
693;1.9950902000000497;2433
694;1.9980583000001388;2433
695;1.9999783000002935;2433
696;2.0019648000002235;2434
697;2.003997100000106;2434
698;2.007117200000266;2434
699;2.0100471000000653;2434
700;2.0132657000003746;2435
701;2.016165400000318;2435
702;2.019266900000275;2436
703;2.0222035000001597;2436
704;2.0253617000003032;2436
705;2.0282655000000887;2437
706;2.0311901000000034;2437
707;2.034175800000412;2437
708;2.036859600000298;2438
709;2.038987000000361;2438
710;2.0409653000001526;2438
711;2.04328280000027;2439
712;2.046161100000063;2439
713;2.049174700000094;2439
714;2.0519952000004196;2440
715;2.0553570000001855;2440
716;2.058318800000052;2440
717;2.0611955000003945;2441
