;time;amplitude
0;0.004364300000361254;2458
1;0.009598999999980151;2458
2;0.014140100000076927;2459
3;0.019615000000158034;2459
4;0.024555700000291836;2460
5;0.028894400000353926;2459
6;0.03306900000006863;2460
7;0.03766910000013013;2460
8;0.042059900000367634;2460
9;0.04618290000007619;2460
10;0.04967320000014297;2461
11;0.05375300000014249;2461
12;0.05761900000015885;2461
13;0.06165150000015274;2461
14;0.06580100000019229;2462
15;0.06972870000026887;2462
16;0.07374310000022888;2462
17;0.07669080000005124;2463
18;0.08067110000001776;2463
19;0.08403960000032384;2463
20;0.08807690000003277;2464
21;0.09203610000031404;2464
22;0.0960586000001058;2464
23;0.09996350000028542;2465
24;0.1040712000003623;2465
25;0.10803759999998874;2466
26;0.1120613000002777;2466
27;0.11599040000010064;2466
28;0.12006930000006832;2466
29;0.12406780000037543;2466
30;0.12786880000021483;2467
31;0.13141140000016094;2467
32;0.13484360000029483;2467
33;0.1389059000002817;2467
34;0.14289770000004864;2467
35;0.14686370000026727;2467
36;0.1498316000001978;2467
37;0.15393940000012662;2467
38;0.1579159000002619;2467
39;0.16147490000003017;2468
40;0.16453630000023622;2468
41;0.16783100000020568;2468
42;0.1719097000000147;2468
43;0.17590900000004694;2467
44;0.17986270000028526;2468
45;0.18391810000002806;2468
46;0.18790070000022752;2468
47;0.1918998000001011;2468
48;0.19589120000000548;2468
49;0.19839950000005047;2468
50;0.20160870000017894;2468
51;0.2045852000001105;2468
52;0.20745609999994485;2468
53;0.21063230000027033;2468
54;0.21364310000035402;2468
55;0.21661059999996723;2468
56;0.21961090000013428;2468
57;0.22259930000018358;2468
58;0.2256227000002582;2468
59;0.228587300000072;2468
60;0.2313309000001027;2468
61;0.23460509999995338;2468
62;0.2376032000001942;2467
63;0.24034710000023551;2467
64;0.24358400000028269;2467
65;0.2465846000000056;2467
66;0.24958080000033078;2467
67;0.25259020000021337;2466
68;0.2555648000002293;2466
69;0.2586046000001261;2466
70;0.2615762000000359;2466
71;0.26436439999997674;2466
72;0.26757220000035886;2466
73;0.2703908000003139;2466
74;0.27331279999998515;2465
75;0.2766372000000956;2465
76;0.27960970000003726;2465
77;0.2826110000000881;2465
78;0.28561549999994895;2465
79;0.2886041000001569;2465
80;0.2915981000001011;2465
81;0.29457970000021305;2465
82;0.29755400000021837;2465
83;0.30059460000029503;2466
84;0.3035821000003125;2466
85;0.30661570000029315;2466
86;0.30961270000034347;2466
87;0.3126107000002776;2465
88;0.31554400000004534;2466
89;0.3183751999999913;2466
90;0.3215749999999389;2466
91;0.3245455999999649;2465
92;0.3276152000003094;2466
93;0.3308876999999484;2466
94;0.3333593000002111;2466
95;0.3368494000001192;2466
96;0.3408208000000741;2465
97;0.3448281999999381;2465
98;0.3484032000001207;2465
99;0.35167249999994965;2465
100;0.3546107000001939;2465
101;0.357638500000121;2464
102;0.36175200000025143;2464
103;0.365372600000228;2464
104;0.36838239999997313;2464
105;0.3719651999999769;2464
106;0.37597950000008495;2463
107;0.3798940000001494;2464
108;0.38396270000021104;2464
109;0.3879661999999371;2464
110;0.3919610000002649;2463
111;0.3959601000001385;2463
112;0.39959570000019085;2463
113;0.40396869999995033;2463
114;0.40790670000023965;2462
115;0.4119473000000653;2462
116;0.4143113000000085;2463
117;0.41793090000010125;2462
118;0.4219620000003488;2462
119;0.4259529000000839;2462
120;0.4299082000002272;2462
121;0.43275370000037583;2462
122;0.4369509000002836;2462
123;0.44094230000018797;2462
124;0.44440030000032493;2461
125;0.4479627000000619;2461
126;0.45065640000029816;2460
127;0.45489050000014686;2460
128;0.4588880999999674;2459
129;0.46179140000003827;2459
130;0.46579220000012356;2459
131;0.4698816000000079;2459
132;0.4738934000001791;2458
133;0.47787160000007134;2458
134;0.48144760000013775;2458
135;0.4858852000002116;2458
136;0.48984229999996387;2457
137;0.4927929000000404;2457
138;0.4955779000001712;2457
139;0.49827860000004875;2456
140;0.5015557000001536;2456
141;0.5045475000001716;2455
142;0.5072728000000097;2455
143;0.5103546000000279;2455
144;0.5133505000003424;2454
145;0.5163574000002882;2454
146;0.5199623000003157;2455
147;0.5233803000000989;2454
148;0.5263390000000072;2454
149;0.5298804000003656;2454
150;0.5323489000002155;2454
151;0.5356447000003755;2453
152;0.5394442000001618;2453
153;0.5422956000002159;2452
154;0.5454115000002275;2452
155;0.548439000000144;2451
156;0.5514808000002631;2450
157;0.5544741000003341;2450
158;0.5574595000002773;2449
159;0.5604980000002797;2449
160;0.5634899000001496;2448
161;0.5663413000002038;2448
162;0.5696462000000793;2448
163;0.5726277000003392;2448
164;0.5756270000001678;2447
165;0.5786282000003666;2447
166;0.5812810000002173;2447
167;0.5832376000003023;2447
168;0.5854326000003311;2447
169;0.5885826000003362;2447
170;0.5915764999999737;2446
171;0.5945848000001206;2446
172;0.5974037000000862;2445
173;0.6005126000000018;2445
174;0.6034855000002608;2445
175;0.6065855000001648;2444
176;0.6095795999999609;2444
177;0.6125913000000764;2444
178;0.6154741000000286;2444
179;0.6185927000001357;2443
180;0.6215901000000486;2443
181;0.6245849000001726;2442
182;0.6275948000002245;2442
183;0.6313141000000542;2442
184;0.6345891000000847;2441
185;0.637593200000083;2441
186;0.6405847999999423;2441
187;0.6435817999999927;2440
188;0.6465877000000546;2440
189;0.6495839000003798;2439
190;0.652586600000177;2439
191;0.6555830000002061;2439
192;0.6585856000001513;2438
193;0.6615867000000435;2437
194;0.6641839000003529;2437
195;0.6676085000003695;2437
196;0.6705841000002692;2437
197;0.6735811000003196;2436
198;0.6762358999999378;2436
199;0.6795866000002206;2435
200;0.6825935000001664;2435
201;0.6855936000001748;2434
202;0.6885888000001614;2434
203;0.6914851000001363;2434
204;0.6945881000001464;2434
205;0.6975288000003275;2433
206;0.7005732000002354;2433
207;0.7035858000003827;2433
208;0.7065735000001041;2433
209;0.7092921000003116;2432
210;0.7112710000001243;2432
211;0.7132507000001169;2432
212;0.7152780000001258;2432
213;0.7171953000001849;2431
214;0.7203100000001541;2431
215;0.7232358000001113;2431
216;0.7252863000003344;2430
217;0.7282580999999482;2430
218;0.7302552999999534;2430
219;0.7323148000000401;2429
220;0.7352561000002424;2429
221;0.7372434000003523;2428
222;0.7393117000001439;2428
223;0.7425991000000067;2427
224;0.7455835000000661;2426
225;0.7485701000000518;2426
226;0.7515692000001764;2426
227;0.7545149000002311;2425
228;0.7575639000001502;2425
229;0.7605774000003294;2424
230;0.7635669000001144;2423
231;0.7665716999999859;2423
232;0.7695745000000898;2423
233;0.7722261000003527;2422
234;0.7755941000000348;2422
235;0.7785830000002534;2421
236;0.781286700000237;2421
237;0.784571600000163;2420
238;0.7875779000000875;2419
239;0.7905737999999474;2419
240;0.7935806000000412;2419
241;0.7965705999999955;2418
242;0.7995694999999614;2418
243;0.8021800999999869;2417
244;0.805569000000105;2417
245;0.8085785000002943;2416
246;0.8115645000002587;2416
247;0.8143191000003753;2415
248;0.8175496000003477;2415
249;0.8205754000000525;2415
250;0.8235658000003241;2414
251;0.8265762000000905;2413
252;0.8295480000001589;2413
253;0.8325683000002755;2412
254;0.8354798000000301;2412
255;0.8384866999999758;2411
256;0.8415797000002385;2410
257;0.8445673999999599;2410
258;0.8475326000002497;2409
259;0.8513256999999612;2409
260;0.8545506000000387;2409
261;0.8575493000003007;2408
262;0.8605580000003101;2408
263;0.8635478000001058;2407
264;0.8665531000001465;2406
265;0.8693892999999662;2406
266;0.8724021000002722;2405
267;0.8758909000002859;2405
268;0.8797604000001229;2405
269;0.8825928999999633;2404
270;0.8864806000001408;2404
271;0.8897535999999491;2403
272;0.8926657000001796;2403
273;0.8956997000000229;2403
274;0.8986482000000251;2403
275;0.902841399999943;2402
276;0.9068475000003673;2402
277;0.9108475000002727;2402
278;0.9143957000001137;2401
279;0.9178054000003613;2401
280;0.9218482000001131;2400
281;0.925853200000347;2399
282;0.9298275000001013;2398
283;0.9328196000001299;2398
284;0.9366248000001178;2397
285;0.9408579999999347;2397
286;0.9448512000003575;2396
287;0.9477139000000534;2395
288;0.9506022000000485;2395
289;0.9535764000002018;2394
290;0.9565882000001693;2394
291;0.9595690000001014;2393
292;0.9626115000000937;2393
293;0.9654116000001522;2392
294;0.9685646000002635;2392
295;0.9715524000002915;2391
296;0.9745548000000781;2390
297;0.9772953000001507;2390
298;0.9805863999999929;2389
299;0.9835540000003675;2388
300;0.9865554000002703;2388
301;0.9895556999999826;2387
302;0.992501600000196;2387
303;0.995563200000106;2386
304;0.9985796999999366;2386
305;1.001558400000249;2385
306;1.004562800000258;2384
307;1.0075569000000542;2384
308;1.0105869000003622;2383
309;1.0135536000002503;2382
310;1.0165466000003107;2381
311;1.0195475000000442;2381
312;1.022552800000085;2380
313;1.025285800000347;2380
314;1.0272959000003539;2379
315;1.0305671000000984;2379
316;1.0334154000001945;2379
317;1.0363728000002084;2378
318;1.0393738000002486;2377
319;1.0424062000001868;2377
320;1.0454447000001892;2377
321;1.0484593000001041;2377
322;1.0513663000001543;2376
323;1.054385899999943;2376
324;1.0573858000002474;2376
325;1.0603627000000415;2375
326;1.06356790000018;2375
327;1.0665521000000808;2374
328;1.0695722000000387;2374
329;1.072523799999999;2374
330;1.0755480000002535;2373
331;1.0785475000002407;2373
332;1.0812857000000804;2373
333;1.0845315000001392;2373
334;1.0875279000001683;2373
335;1.0905477000001156;2372
336;1.0935355999999956;2372
337;1.096568599999955;2372
338;1.0995742000000064;2372
339;1.102573200000279;2371
340;1.1055770000002667;2371
341;1.1085682000002635;2370
342;1.1115819999999985;2370
343;1.1142828000001828;2370
344;1.1175984000001336;2369
345;1.1205797000002349;2369
346;1.1235475000003134;2369
347;1.1265677000001233;2369
348;1.129379599999993;2368
349;1.1326076000000285;2368
350;1.1355657000003703;2368
351;1.1385981000003085;2367
352;1.1415704000000915;2367
353;1.1443373000001884;2367
354;1.1474824000001718;2366
355;1.1505481000003783;2366
356;1.1535914999999477;2366
357;1.156562600000143;2365
358;1.1595961000002717;2365
359;1.162570599999981;2365
360;1.1655931000000237;2365
361;1.1685735000000932;2365
362;1.171536300000298;2364
363;1.174587800000154;2364
364;1.1775975000000471;2364
365;1.1806453000003785;2363
366;1.1835684000002402;2363
367;1.1865723000000798;2362
368;1.1895918000000165;2362
369;1.1925639999999476;2362
370;1.1955931000002238;2362
371;1.1985853000001043;2361
372;1.201569400000153;2360
373;1.2045624000002135;2360
374;1.2073678000001564;2360
375;1.2105687000002945;2360
376;1.2135864000001675;2360
377;1.2165692000003219;2359
378;1.2195771000001514;2359
379;1.222602199999983;2359
380;1.2255702000002202;2359
381;1.2285792000002402;2359
382;1.2314375000000837;2359
383;1.2345801999999821;2359
384;1.2375720000000001;2358
385;1.240602200000012;2358
386;1.2435731000000487;2358
387;1.2465408000002753;2358
388;1.249601100000291;2358
389;1.252560700000231;2357
390;1.2555750000001353;2357
391;1.258571800000027;2357
392;1.2615662000002885;2357
393;1.2643299999999726;2357
394;1.2676033000002462;2357
395;1.2703880000003664;2356
396;1.2735876000001554;2357
397;1.2765847000000576;2357
398;1.2795685000000958;2357
399;1.2825965000001815;2357
400;1.2855097999999998;2356
401;1.2885317000000214;2356
402;1.2915882000002057;2356
403;1.2945613000001686;2356
404;1.2973157999999785;2356
405;1.300597700000253;2355
406;1.3044457000000875;2355
407;1.3075745000001007;2354
408;1.3105737000000772;2354
409;1.3135841000002983;2354
410;1.3165742999999566;2354
411;1.3193361000003279;2354
412;1.3226063000001886;2353
413;1.325568800000383;2353
414;1.3285737999999583;2353
415;1.3313312000000224;2354
416;1.3345741000002818;2354
417;1.3375764000002164;2354
418;1.3405745000000024;2354
419;1.3435810000000856;2354
420;1.346593500000381;2354
421;1.3493227000003571;2354
422;1.352597600000081;2354
423;1.355596500000047;2354
424;1.3585820000002968;2354
425;1.361567500000092;2354
426;1.3641879000001609;2354
427;1.3663265000000138;2354
428;1.3693481000000247;2354
429;1.372612300000128;2355
430;1.37556880000011;2354
431;1.3786007000003337;2355
432;1.3824759000003723;2354
433;1.38550400000031;2354
434;1.3884907999999996;2354
435;1.3915108000001055;2354
436;1.3945877999999539;2355
437;1.3973375000000487;2355
438;1.400293099999999;2355
439;1.4023271999999452;2355
440;1.4055072999999538;2355
441;1.40854360000003;2355
442;1.4115575000000717;2355
443;1.414169099999981;2355
444;1.4163689000001796;2355
445;1.419734900000094;2355
446;1.4227146000002904;2355
447;1.425719900000331;2355
448;1.4287197000003289;2355
449;1.4313673000001472;2355
450;1.4346592000001692;2355
451;1.4376153000002887;2355
452;1.4404781000002913;2355
453;1.4434759000000668;2355
454;1.4464938000000984;2355
455;1.4495103000003837;2356
456;1.452517600000192;2356
457;1.4555053000003682;2356
458;1.4584850999999617;2357
459;1.4615433000003577;2357
460;1.4643221000001176;2357
461;1.467521200000192;2357
462;1.470523200000116;2357
463;1.473504000000048;2357
464;1.4765025000001515;2357
465;1.479497100000117;2357
466;1.4825112000003173;2357
467;1.4855004000000918;2357
468;1.4884978000000046;2357
469;1.4914972000001399;2357
470;1.494507800000065;2357
471;1.4973460000001069;2357
472;1.5005154000000402;2358
473;1.5035055000003013;2357
474;1.5065082999999504;2357
475;1.5095046999999795;2357
476;1.512308600000324;2358
477;1.5155085000001236;2358
478;1.51860970000007;2358
479;1.5216196000001219;2358
480;1.5246053000000757;2358
481;1.5276290000001609;2358
482;1.5303037000003314;2358
483;1.533295100000032;2359
484;1.5366452000002937;2359
485;1.5395140000000538;2360
486;1.542554800000289;2360
487;1.5455513000001702;2360
488;1.548308000000361;2360
489;1.5503551000001607;2361
490;1.5539283000002797;2361
491;1.557468400000289;2361
492;1.5609113000000434;2361
493;1.563553899999988;2361
494;1.566462700000102;2361
495;1.569402699999955;2362
496;1.5724300000001676;2362
497;1.5758278000002974;2363
498;1.5799073000002863;2363
499;1.5828765999999632;2364
500;1.5868978000003153;2364
501;1.5908808000003773;2365
502;1.5949091000002227;2365
503;1.5984011000000464;2365
504;1.6019381000000976;2365
505;1.6058537000003525;2365
506;1.6099001000002318;2365
507;1.6137016000002404;2365
508;1.616827700000158;2365
509;1.6209167000001798;2366
510;1.6249101000003066;2366
511;1.6288910000002943;2367
512;1.63290730000017;2367
513;1.636913800000002;2368
514;1.6409124000001611;2368
515;1.6449805000002016;2368
516;1.6488564000001134;2368
517;1.6518495000000257;2368
518;1.6555143000000498;2368
519;1.6596372000003612;2368
520;1.6628006999999343;2368
521;1.6656396000003042;2369
522;1.6686055000000124;2369
523;1.6716251000002558;2369
524;1.6746355000000221;2369
525;1.6776638999999705;2370
526;1.6808163000000604;2370
527;1.6836726000001363;2370
528;1.68666630000007;2371
529;1.68965419999995;2371
530;1.6924462000001768;2371
531;1.6955966000000444;2371
532;1.698454800000036;2371
533;1.7015808999999535;2372
534;1.7046026000002712;2372
535;1.7075022000003628;2372
536;1.7106038000001718;2372
537;1.7136029000002964;2373
538;1.7166108999999778;2373
539;1.7196178000003783;2374
540;1.7226174000002175;2374
541;1.725614299999961;2375
542;1.7286203000003297;2375
543;1.7316181999999571;2376
544;1.7344732000001386;2376
545;1.737608000000364;2377
546;1.7406193000001622;2377
547;1.743607300000349;2377
548;1.74660700000004;2378
549;1.7496005000002697;2378
550;1.7526113000003534;2378
551;1.7554700000000594;2379
552;1.7586099000000104;2379
553;1.7616021000003457;2379
554;1.7642644000002292;2380
555;1.7676054000003205;2381
556;1.7703595000002679;2381
557;1.773614500000349;2381
558;1.7766202000002522;2382
559;1.779621600000155;2382
560;1.7826075000002675;2383
561;1.7855939999999464;2383
562;1.788612700000158;2383
563;1.7916079000001446;2384
564;1.794604800000343;2384
565;1.7973077999999987;2384
566;1.8006153999999697;2384
567;1.8036141000002317;2385
568;1.8066100000000915;2385
569;1.8096135000000686;2386
570;1.8126161000000138;2386
571;1.8156063999999787;2387
572;1.8186083000000508;2387
573;1.821611700000176;2387
574;1.8246201000001747;2388
575;1.827607000000171;2388
576;1.8306537000003118;2389
577;1.833421300000282;2389
578;1.836593300000004;2389
579;1.8395918000001075;2389
580;1.8426093000002766;2390
581;1.8455942000000505;2390
582;1.8486319000003277;2391
583;1.8515999999999622;2391
584;1.854598100000203;2391
585;1.8575823999999557;2392
586;1.8606065000003582;2392
587;1.8636052000001655;2393
588;1.8664668999999776;2393
589;1.8695912000002863;2394
590;1.872600600000169;2395
591;1.8755808000000798;2395
592;1.8786033999999745;2395
593;1.8815867000002982;2396
594;1.8845888000000741;2396
595;1.8876009000000522;2396
596;1.8906057000003784;2397
597;1.8935960000003433;2398
598;1.8965906000003088;2398
599;1.8996051000003717;2398
600;1.902610800000275;2399
601;1.905591700000059;2399
602;1.908600700000079;2400
603;1.911649099999977;2400
604;1.9143564999999398;2401
605;1.9174842000002172;2402
606;1.9204257000001235;2402
607;1.923467999999957;2403
608;1.9263648000001012;2403
609;1.9285893000001124;2404
610;1.9312614000000394;2404
611;1.9344022000000223;2405
612;1.9375104000000647;2405
613;1.9404891000003772;2405
614;1.9434742000003098;2406
615;1.946295100000043;2406
616;1.948460200000227;2407
617;1.951451100000213;2407
618;1.954444500000136;2408
619;1.957436400000006;2408
620;1.960442300000068;2409
621;1.9634116000001995;2409
622;1.9665837000002284;2410
623;1.9695709000002353;2410
624;1.972576200000276;2411
625;1.9755817000000206;2411
626;1.9785062000000835;2412
627;1.981619800000317;2412
628;1.9845484000002216;2413
629;1.9875560000000405;2413
630;1.990554400000292;2413
631;1.9935786000000917;2414
632;1.9965806000000157;2414
633;1.999576000000161;2415
634;2.0025838000001386;2415
635;2.005582900000263;2416
636;2.00857810000025;2416
637;2.0116084999999657;2417
638;2.0143611000003148;2418
639;2.0175702999999885;2418
640;2.0205730000002404;2418
641;2.023569899999984;2419
642;2.0262602000002516;2419
643;2.029315100000076;2420
644;2.0313860000001114;2420
645;2.0345203000001675;2421
646;2.0375213000002077;2421
647;2.0405369000000064;2422
648;2.043575400000009;2422
649;2.0465564000000995;2423
650;2.049449000000095;2423
651;2.052444899999955;2423
652;2.0554541000001336;2424
653;2.0584563000002163;2425
654;2.061461799999961;2425
655;2.064250400000219;2426
656;2.0673961000002237;2426
657;2.070458200000303;2426
658;2.073408200000358;2426
659;2.0764093000002504;2427
660;2.079478200000267;2427
661;2.0825933999999506;2428
662;2.0855909000001702;2428
663;2.088567900000271;2429
664;2.0915999000003467;2429
665;2.0945862000003217;2430
666;2.0973392000000786;2430
667;2.1005926000002546;2431
668;2.103596800000105;2431
669;2.1065899000000172;2432
670;2.1095949000000473;2432
671;2.112604200000078;2433
672;2.115596699999969;2433
673;2.1186047999999573;2433
674;2.1215949000002183;2434
675;2.124606600000334;2434
676;2.1275941000003513;2435
677;2.130545500000153;2435
678;2.1335966000001463;2436
679;2.1365739000002577;2437
680;2.139593000000332;2437
681;2.142615200000364;2438
682;2.1455777999999555;2438
683;2.148597500000051;2439
684;2.1516007000000172;2439
685;2.154560599999968;2440
686;2.15759479999997;2440
687;2.160588000000189;2441
688;2.163608700000168;2441
689;2.166592700000365;2441
690;2.169589300000098;2442
691;2.1726010000002134;2442
692;2.175592300000062;2442
693;2.178599800000029;2443
694;2.1816108000002714;2443
695;2.184616300000016;2443
696;2.187597800000276;2444
697;2.1905894999999873;2445
698;2.1936004000003777;2445
699;2.1965923000002476;2445
700;2.19959259999996;2445
701;2.2025598000000173;2446
702;2.205233700000008;2446
703;2.208601600000293;2447
704;2.2115822000000662;2447
705;2.2143952000001264;2448
706;2.2175951000003806;2448
707;2.220580200000313;2449
708;2.2235954000002494;2449
709;2.2265879999999925;2449
710;2.2295991000000868;2450
711;2.232623500000045;2450
712;2.2355931000001874;2450
713;2.238581200000226;2451
714;2.241605900000195;2452
715;2.244587600000159;2453
716;2.247307399999954;2453
717;2.2506225000001905;2454
718;2.253595200000291;2454
