;time;amplitude
0;0.003189099999872269;2408
1;0.00717360000089684;2409
2;0.011564200000066194;2408
3;0.01541920000090613;2408
4;0.019521000000167987;2408
5;0.023274000001038075;2408
6;0.027532300000530086;2407
7;0.03152020000015909;2407
8;0.03529490000073565;2406
9;0.039455500000258326;2406
10;0.043532499999855645;2407
11;0.04756150000139314;2406
12;0.05135429999972985;2406
13;0.05555650000133028;2405
14;0.05957800000032876;2405
15;0.06355690000054892;2405
16;0.06755750000047556;2405
17;0.07155240000065533;2405
18;0.0755711000001611;2405
19;0.07955800000127056;2405
20;0.08356760000060603;2405
21;0.08755290000044624;2404
22;0.0913925000004383;2404
23;0.09555660000114585;2404
24;0.09956349999993108;2404
25;0.10339910000038799;2404
26;0.1071553000001586;2405
27;0.1102392000011605;2404
28;0.11299490000055812;2404
29;0.11617650000152935;2404
30;0.11917250000078639;2404
31;0.12217320000127074;2404
32;0.12517880000086734;2404
33;0.12802320000082545;2404
34;0.131176000000778;2404
35;0.134175300001516;2405
36;0.13717410000026575;2405
37;0.13987170000109472;2405
38;0.1431627000001754;2405
39;0.14600630000131787;2405
40;0.14910380000037549;2405
41;0.15211620000081894;2405
42;0.15515480000067328;2405
43;0.15815140000086103;2405
44;0.1611493000000337;2405
45;0.16415240000060294;2406
46;0.16714909999973315;2406
47;0.1700544000013906;2406
48;0.17288860000007844;2406
49;0.17596310000044468;2406
50;0.17915450000145938;2406
51;0.18215060000147787;2406
52;0.18517090000023018;2406
53;0.1881392000013875;2406
54;0.19107010000152513;2406
55;0.1941385000009177;2406
56;0.19714139999996405;2406
57;0.20014810000066063;2407
58;0.20314060000055179;2406
59;0.20607460000064748;2407
60;0.20914790000097128;2407
61;0.21214010000039707;2407
62;0.21514180000121996;2407
63;0.21815050000077463;2407
64;0.2211557000009634;2407
65;0.2241442000013194;2407
66;0.22715430000062042;2407
67;0.23014620000139985;2407
68;0.23314480000044568;2408
69;0.236114200000884;2408
70;0.23908690000098431;2408
71;0.24211319999994885;2408
72;0.2451169000014488;2408
73;0.24811360000057903;2409
74;0.25111460000152874;2409
75;0.25377579999985755;2409
76;0.2567465000010998;2409
77;0.2600634999998874;2410
78;0.26320620000115014;2410
79;0.2664429000014934;2410
80;0.270228400000633;2411
81;0.27282999999988533;2411
82;0.27611910000086937;2411
83;0.2791253000013967;2412
84;0.28211710000141466;2412
85;0.28509330000088084;2412
86;0.28812870000001567;2412
87;0.2911297000009654;2412
88;0.29411980000077165;2413
89;0.29712710000057996;2413
90;0.30013750000034634;2413
91;0.30312080000112473;2414
92;0.3060586000010517;2414
93;0.30911980000018957;2414
94;0.3121268000013515;2415
95;0.31511930000124266;2415
96;0.31784180000067863;2415
97;0.321560700000191;2415
98;0.32541959999980463;2416
99;0.3294524000011734;2416
100;0.33327790000112145;2416
101;0.3360840000004828;2417
102;0.3389113000012003;2417
103;0.3410966000010376;2417
104;0.34412300000076357;2418
105;0.34713680000095337;2418
106;0.35012270000152057;2419
107;0.35311560000081954;2419
108;0.35600500000145985;2420
109;0.35912220000136585;2420
110;0.36205340000014985;2421
111;0.36509939999996277;2421
112;0.3678635000014765;2422
113;0.3709388000006584;2422
114;0.3727716000012151;2422
115;0.37487200000032317;2422
116;0.3768185999997513;2423
117;0.3788666000000376;2423
118;0.3808781000007002;2423
119;0.382824400001482;2424
120;0.3859093999999459;2424
121;0.3893991000004462;2425
122;0.39239249999991443;2426
123;0.3952399999998306;2426
124;0.39810920000127226;2427
125;0.401087500000358;2427
126;0.4040889000007155;2428
127;0.40692699999999604;2428
128;0.4101403000004211;2429
129;0.4131247000004805;2429
130;0.416132700000162;2429
131;0.4191128000002209;2430
132;0.4221157000010862;2430
133;0.42512600000009115;2430
134;0.4281250000003638;2431
135;0.4311169000011432;2431
136;0.4341284000001906;2432
137;0.4371179999998276;2432
138;0.43993180000143184;2432
139;0.4431180999999924;2433
140;0.44611780000013823;2433
141;0.44913600000109;2434
142;0.4521113000009791;2434
143;0.45512070000040694;2434
144;0.45780830000148853;2435
145;0.46111930000006396;2435
146;0.4641198000008444;2435
147;0.46711710000090534;2436
148;0.4701252000013483;2436
149;0.47267180000017106;2436
150;0.4757539000001998;2437
151;0.4778404999997292;2437
152;0.48100030000023253;2438
153;0.4839882000014768;2438
154;0.4869914000009885;2438
155;0.4897556000014447;2439
156;0.491739700000835;2439
157;0.4940442000006442;2439
158;0.4971118000012211;2440
159;0.5001093999999284;2441
160;0.5031112000015128;2440
161;0.5060419000001275;2441
162;0.5091119999997318;2441
163;0.5121334000014031;2442
164;0.5151110000006156;2442
165;0.518114800001058;2443
166;0.5207750000008673;2444
167;0.5241193000001658;2444
168;0.527112700001453;2444
169;0.5301108000003296;2444
170;0.533137300000817;2445
171;0.536066500000743;2445
172;0.5391072000002168;2446
173;0.5421199000011256;2446
174;0.545116400000552;2446
175;0.5481153000000631;2447
176;0.5511287999997876;2447
177;0.5541294000013295;2447
178;0.5570913000010478;2447
179;0.5601201999998011;2447
180;0.5631193000008352;2448
181;0.5661180000006425;2448
182;0.5691285000011703;2448
183;0.5721404000014445;2448
184;0.5751261000004888;2448
185;0.5781154000014794;2449
186;0.5811196000013297;2449
187;0.5837897000001249;2449
188;0.5871884000007412;2449
189;0.5898550000001705;2449
190;0.593144200000097;2449
191;0.5961173000014242;2449
192;0.5993654000012612;2450
193;0.602143400001296;2450
194;0.6051184000007197;2450
195;0.6081480000011652;2451
196;0.6111192000007577;2451
197;0.6141200000001845;2451
198;0.6171235000001616;2451
199;0.6201185000008991;2452
200;0.6226685000001453;2451
201;0.6249689000014769;2451
202;0.6281200000012177;2451
203;0.630981400001474;2452
204;0.63414290000037;2452
205;0.6371285000004718;2452
206;0.6399332000000868;2452
207;0.6431171000003815;2452
208;0.6459840000006807;2453
209;0.6491256000008434;2453
210;0.6521189000013692;2452
211;0.6551365000013902;2453
212;0.6581316000010702;2453
213;0.6611186000009184;2453
214;0.6641216000007262;2452
215;0.6671194999998988;2453
216;0.6701205000008486;2453
217;0.6727515000002313;2452
218;0.6761146999997436;2452
219;0.6791205000008631;2452
220;0.6821192000006704;2452
221;0.6851217000003089;2452
222;0.6881296999999904;2451
223;0.6911297000006016;2451
224;0.6938724999999977;2451
225;0.6968512000003102;2451
226;0.7000611000003119;2451
227;0.7030661999997392;2451
228;0.7060730000011972;2451
229;0.7089327000012418;2451
230;0.7121106000013242;2451
231;0.7151137000000745;2451
232;0.718119500001194;2450
233;0.7211122999997315;2450
234;0.7241143000010197;2450
235;0.7271203000000241;2450
236;0.7301161000013963;2450
237;0.7331179000011616;2450
238;0.7361233999999968;2450
239;0.7390267999999196;2450
240;0.7421174000010069;2450
241;0.7451168000006874;2450
242;0.7481179000005795;2450
243;0.7511234000012337;2449
244;0.7541185000009136;2449
245;0.75712139999996;2449
246;0.7601435000015044;2449
247;0.7631333000008453;2449
248;0.7661199000012857;2449
249;0.7691171000005852;2449
250;0.7720137000014802;2449
251;0.775128000001132;2449
252;0.7781210000011924;2449
253;0.781138500000452;2448
254;0.7841218000012304;2448
255;0.7871164000007411;2448
256;0.7899520999999368;2448
257;0.7931270000008226;2448
258;0.7961324000007153;2447
259;0.7991228000009869;2447
260;0.802142399999866;2447
261;0.8050788000000466;2447
262;0.8080678000005719;2446
263;0.811078800001269;2446
264;0.8140749000012875;2446
265;0.8170922999997856;2445
266;0.8201420000004873;2445
267;0.8227669000007154;2445
268;0.8261189000004379;2445
269;0.8291272000005847;2444
270;0.8321372000009433;2445
271;0.8350588000012067;2444
272;0.8381179000007251;2443
273;0.8411477999998169;2443
274;0.8441160000002128;2443
275;0.8471188000003167;2442
276;0.8499515000003157;2441
277;0.8520977000007406;2441
278;0.8551292000011017;2441
279;0.8581196000013733;2441
280;0.8611163000005035;2440
281;0.8641256000009889;2440
282;0.8671308000011777;2439
283;0.8701215000000957;2438
284;0.8727711000010459;2438
285;0.8761214000005566;2438
286;0.8791183000012097;2437
287;0.8818707999998878;2437
288;0.8851199000000634;2437
289;0.8881223000007594;2437
290;0.8911340000013297;2436
291;0.894128300000375;2436
292;0.8971357999998872;2436
293;0.9001177999998617;2436
294;0.9031227000014042;2435
295;0.9060371000014129;2434
296;0.9091181000003417;2434
297;0.9121164000007411;2434
298;0.9147466000013083;2434
299;0.9170377000009466;2433
300;0.9201769999999669;2433
301;0.922933900001226;2433
302;0.9259868000008282;2433
303;0.9287586999998894;2432
304;0.9320716000001994;2432
305;0.9351421000010305;2432
306;0.9381131999998615;2431
307;0.9411207000011927;2431
308;0.9445802999998705;2431
309;0.9486099000005197;2431
310;0.9523465000002034;2430
311;0.9551719000010053;2430
312;0.9581214999998338;2429
313;0.9616221000014775;2428
314;0.9651376000001619;2428
315;0.9682639000002382;2427
316;0.9712455999997474;2427
317;0.9741164000006393;2427
318;0.9772050999999919;2426
319;0.9802236000014091;2426
320;0.9831396000008681;2426
321;0.9861246000000392;2425
322;0.9890726000012364;2425
323;0.9917401000002428;2424
324;0.9951164000012795;2423
325;0.9981200000001991;2423
326;1.0011255000008532;2422
327;1.0041203000000678;2422
328;1.0071114000002126;2421
329;1.010117200001332;2421
330;1.0131450000008044;2421
331;1.0161211000013282;2420
332;1.0191333000002487;2420
333;1.0221283999999287;2419
334;1.024925700001404;2419
335;1.0278960000014195;2419
336;1.0310724999999366;2418
337;1.0340801000002102;2418
338;1.0370946000002732;2417
339;1.0399596000006568;2417
340;1.0431290000014997;2417
341;1.0461205999999947;2416
342;1.0491415000014968;2415
343;1.052115300000878;2415
344;1.0551178000005166;2415
345;1.058130400000664;2414
346;1.061643600000025;2414
347;1.0653324000013527;2414
348;1.0692933999998786;2413
349;1.0722050000003946;2413
350;1.0752088999997795;2412
351;1.0781161000013526;2412
352;1.0811119000009057;2412
353;1.0841393999999127;2412
354;1.0871623000002728;2411
355;1.0899422000002232;2411
356;1.0931496000011975;2411
357;1.0961196000007476;2410
358;1.0991358000010223;2410
359;1.1019683000013174;2410
360;1.1051152000000002;2410
361;1.108125900000232;2410
362;1.1111255000014353;2409
363;1.1141216000014538;2409
364;1.1169867000007798;2409
365;1.1201427000014519;2408
366;1.1228447000012238;2408
367;1.126143100000263;2408
368;1.1291278000007878;2408
369;1.1321318999998766;2407
370;1.1348866000007547;2407
371;1.13810150000063;2407
372;1.1410868000002665;2407
373;1.1441203000013047;2406
374;1.1471191000000545;2407
375;1.1501243000002432;2406
376;1.1531222000012349;2406
377;1.155975400000898;2406
378;1.1591653000014048;2405
379;1.1621652000012546;2405
380;1.1651462000008905;2405
381;1.168147600001248;2405
382;1.1711528000014368;2405
383;1.1741221000011137;2404
384;1.1771267000003718;2405
385;1.18002290000004;2404
386;1.1830196000009892;2404
387;1.1865148000015324;2404
388;1.1900519999999233;2404
389;1.1934313000001566;2404
390;1.1974421000013535;2403
391;1.2014825000005658;2403
392;1.2054653000013786;2404
393;1.2084377000010136;2404
394;1.2119653000008839;2404
395;1.215118900001471;2404
396;1.21822020000036;2404
397;1.2212333000006765;2404
398;1.2241678000009415;2404
399;1.2271634999997332;2404
400;1.2302608000009059;2404
401;1.2332576000007975;2404
402;1.236023600000408;2404
403;1.2389825000009296;2404
404;1.2426627000004373;2404
405;1.245946200000617;2404
406;1.2491629000014655;2404
407;1.252259500000946;2405
408;1.2552450000002864;2404
409;1.2582130999999208;2405
410;1.2611926999998104;2405
411;1.2641933000013523;2405
412;1.2671958999999333;2405
413;1.2702223000014783;2405
414;1.272934600001463;2405
415;1.2762228999999934;2405
416;1.279211300001407;2405
417;1.282214599999861;2405
418;1.2852462000009837;2405
419;1.2882258000008733;2405
420;1.2907943000009254;2405
421;1.2929893000000448;2405
422;1.2959780000001047;2405
423;1.298977800001012;2405
424;1.3025956000001315;2406
425;1.3062190000000555;2406
426;1.3094708999997238;2406
427;1.3134385000012117;2406
428;1.3174705000001268;2407
429;1.3215018000009877;2407
430;1.3237637000001996;2407
431;1.3258820999999443;2407
432;1.3292399000001751;2408
433;1.3322227000007842;2408
434;1.3351173000010021;2408
435;1.3382808000005753;2408
436;1.3412072000010085;2408
437;1.3441995000011957;2408
438;1.3472072000004118;2409
439;1.3502012000008108;2409
440;1.3528373999997712;2409
441;1.3548956000013277;2409
442;1.358611200001178;2409
443;1.3624771000013425;2410
444;1.3663630000010016;2410
445;1.3693843000000925;2411
446;1.3729576000005181;2411
447;1.3764136000008875;2411
448;1.3804679000004398;2412
449;1.384484500000326;2412
450;1.3868387000002258;2412
451;1.3888452999999572;2412
452;1.390865000001213;2413
453;1.3928675000006479;2413
454;1.3948369000008825;2413
455;1.3984310000014375;2414
456;1.4024903000008635;2414
457;1.4061639000010473;2414
458;1.4093958000012208;2415
459;1.4134745999999723;2415
460;1.4174693000004481;2416
461;1.4214701000000787;2417
462;1.4243834000008064;2418
463;1.4284676000006584;2418
464;1.431930900000225;2419
465;1.4351752000002307;2420
466;1.4381778000006307;2420
467;1.4411693000001833;2421
468;1.4442053000002488;2421
469;1.4470627999999124;2422
470;1.450028500001281;2422
471;1.4533351999998558;2422
472;1.4574587000006431;2422
473;1.4619990000010148;2423
474;1.466508800000156;2423
475;1.470404800000324;2424
476;1.474267300000065;2424
477;1.4782625000007101;2424
478;1.4810885000006238;2425
479;1.4840851000008115;2425
480;1.4870976000001974;2425
481;1.4899654000000737;2426
482;1.4934558000004472;2426
483;1.4959955000012997;2426
484;1.4995878000008815;2426
485;1.5035477000001265;2427
486;1.5071002000004228;2428
487;1.510238400000162;2428
488;1.5142857000009826;2428
489;1.5172425000000658;2429
490;1.5202609000007214;2429
491;1.5229902000010043;2429
492;1.5258286000007502;2430
493;1.5279695999997784;2430
494;1.5309964000007312;2431
495;1.5332685000012134;2431
496;1.537577200000669;2431
497;1.5416839000008622;2432
498;1.5455927000002703;2433
499;1.5494402000003902;2434
500;1.5534899000012956;2434
501;1.5572084000014002;2434
502;1.5612782000007428;2435
503;1.564240499999869;2436
504;1.567243100000269;2436
505;1.5702750000000378;2436
506;1.5729219000004377;2437
507;1.576295900000332;2437
508;1.5792192999997496;2437
509;1.5821610000002693;2438
510;1.5852463000010175;2438
511;1.5880007000014302;2439
512;1.5912299000010535;2440
513;1.59422160000031;2440
514;1.5972227000002022;2440
515;1.6002361999999266;2440
516;1.6032224999999016;2440
517;1.6057932000003348;2441
518;1.607866300000751;2441
519;1.6109506000011606;2441
520;1.6128385000010894;2442
521;1.614844700001413;2442
522;1.6178178999998636;2442
523;1.6198709000000235;2443
524;1.6229490000005171;2443
525;1.6265805000002729;2444
526;1.6304236000014498;2445
527;1.6344832000013412;2445
528;1.6372057000007771;2445
529;1.6399375000000873;2445
530;1.6432174000001396;2446
531;1.64619120000134;2446
532;1.6492029000000912;2446
533;1.652071500000602;2446
534;1.6550488000011683;2446
535;1.658000900000843;2447
536;1.661012100001244;2447
537;1.6646577000010438;2447
538;1.6684571000005235;2448
539;1.672167200000331;2449
540;1.6751971000012418;2448
541;1.6782036000004155;2449
542;1.6812060000011115;2449
543;1.6841187000009086;2449
544;1.687197000001106;2449
545;1.689947900000334;2450
546;1.6931946000004245;2450
547;1.696227300000828;2450
548;1.6990812000003643;2450
549;1.7020358000008855;2450
550;1.7049905000003491;2450
551;1.7085959000014554;2450
552;1.7124736000005214;2451
553;1.7164881999997306;2451
554;1.7204684000007546;2451
555;1.7244905000006838;2451
556;1.728490999999849;2451
557;1.7314660000010917;2451
558;1.7352768000000651;2452
559;1.7382480000014766;2451
560;1.741200899999967;2451
561;1.7442042000002402;2451
562;1.7471956000008504;2451
563;1.7501978000000236;2451
564;1.753033900000446;2450
565;1.755741000000853;2451
566;1.759557200000927;2451
567;1.7635598000015307;2451
568;1.7674739000012778;2451
569;1.77149400000053;2451
570;1.7744804000012664;2451
571;1.7784564000012324;2452
572;1.7824130999997578;2452
573;1.785408700001426;2451
574;1.7882483000012144;2452
575;1.7912018000006356;2451
576;1.7938059000007343;2451
577;1.7957556000001205;2451
578;1.797969799999919;2451
579;1.8009796000005736;2451
580;1.8040049000010185;2451
581;1.806991299999936;2451
582;1.810012200001438;2451
583;1.8130008000007365;2451
584;1.818069300001298;2451
585;1.8232497000008152;2452
586;1.8280317000007926;2451
587;1.8329868000000715;2451
588;1.8365248999998585;2451
589;1.8405376999999135;2450
590;1.8453944000011688;2449
591;1.84960030000002;2449
592;1.8535205000007409;2448
593;1.857126300001255;2448
594;1.8615205000005517;2448
595;1.8655771000012464;2448
596;1.8695772999999463;2448
597;1.8731320000006235;2448
598;1.8775499000003038;2448
599;1.881576200001291;2447
600;1.8855872000003728;2447
601;1.8895239000012225;2446
602;1.8935295999999653;2446
603;1.897539700001289;2446
604;1.9015885000007984;2445
605;1.904068499999994;2445
606;1.9070922999999311;2445
607;1.9100692000010895;2445
608;1.9130495999997947;2445
609;1.915925100000095;2445
610;1.918943600001512;2445
611;1.920903800000815;2444
612;1.923909300001469;2444
613;1.9259156000007351;2444
614;1.9279025000014371;2445
615;1.9298917000014626;2444
616;1.931893000000855;2444
617;1.9337541000004421;2444
618;1.9358437000009872;2444
619;1.9378616000012698;2444
620;1.9400666000001365;2444
621;1.9430664999999863;2443
622;1.9459704000000784;2442
623;1.9489394000011089;2443
624;1.9521390999998403;2442
625;1.9551424000001134;2442
626;1.9581465999999637;2442
627;1.961133200000404;2442
628;1.9641397000013967;2441
629;1.9673616000000038;2440
630;1.97144980000121;2440
631;1.9754544000006717;2440
632;1.9795481000001018;2439
633;1.9835141000003205;2439
634;1.9878806000015175;2438
635;1.9914521999999124;2438
636;1.9960111000000325;2437
637;2.001050500000929;2436
638;2.0061505000012403;2435
639;2.0093235000003915;2434
640;2.0132119999998395;2434
641;2.0172075999998924;2434
642;2.020369400001073;2433
643;2.0230140000003303;2433
644;2.027658800001518;2432
645;2.0324992000005295;2431
646;2.03665379999984;2431
647;2.0400862000005873;2431
648;2.0435682000006636;2430
649;2.047647400000642;2430
650;2.051636000000144;2430
651;2.0555956000007427;2429
652;2.0594034000005195;2428
653;2.0635903000002145;2427
654;2.067539100000431;2427
655;2.0715414000005694;2426
656;2.0744911000001593;2426
657;2.0775138000008155;2425
658;2.0815715000007913;2425
659;2.0855547999999544;2424
660;2.0893168000002333;2424
661;2.0936123999999836;2423
662;2.0975674000001163;2423
663;2.1015509000008024;2422
664;2.1055794000003516;2422
665;2.108501700000488;2421
666;2.1113296000003174;2421
667;2.1155681000000186;2420
668;2.119536300000618;2420
669;2.123006700001497;2419
670;2.1260976000012306;2419
671;2.1292284000010113;2418
672;2.1321226000000024;2418
673;2.1352483999999095;2418
674;2.1379802000010386;2418
675;2.1412517999997362;2418
676;2.1442456000004313;2418
677;2.1472443000002386;2417
678;2.1502541999998357;2417
679;2.153036300000167;2416
680;2.155867400000716;2416
681;2.159269100000529;2415
682;2.16228030000093;2415
683;2.165269900000567;2415
684;2.168073100001493;2414
685;2.1710364000009577;2414
686;2.1746216000010463;2414
687;2.17863589999979;2413
688;2.1823559000004025;2413
689;2.1860652000013943;2412
690;2.1889998000006017;2412
691;2.1922250000006898;2411
692;2.1952048000002833;2411
693;2.1982208999997965;2411
694;2.20122210000045;2411
695;2.2040732000004937;2410
696;2.207285200000115;2410
697;2.210272199999963;2410
698;2.213276600001336;2410
699;2.2160615000011603;2409
700;2.219076200000927;2409
701;2.222021499999755;2409
702;2.225265200000649;2409
703;2.2280700000010256;2409
704;2.2310428000000684;2409
705;2.233844800000952;2409
706;2.235816899999918;2408
707;2.23800410000149;2408
708;2.2410190000009607;2408
709;2.244625500001348;2408
710;2.248441499999899;2407
711;2.2514608000001317;2407
712;2.2552605000000767;2407
713;2.2585075000006327;2406
714;2.262517099999968;2406
715;2.265419200000906;2406
716;2.268276300001162;2406
717;2.2712522000001627;2405
718;2.2742859999998473;2405
