;time;amplitude
0;0.0023794999997335253;2522
1;0.005510499999218155;2523
2;0.008462899999358342;2523
3;0.011212800000066636;2524
4;0.014397299999473034;2524
5;0.017178899999635178;2524
6;0.020414799999343813;2525
7;0.023353999999017105;2526
8;0.0263528999985283;2526
9;0.029366099999606377;2527
10;0.03243519999887212;2527
11;0.03529139999955078;2527
12;0.038620899998932146;2527
13;0.04141899999922316;2528
14;0.04440889999932551;2528
15;0.047388999999384396;2528
16;0.05041239999991376;2529
17;0.05348999999841908;2528
18;0.05646119999983057;2528
19;0.05941949999942153;2529
20;0.062479399999574525;2529
21;0.06539579999844136;2529
22;0.06843479999952251;2529
23;0.07145169999967038;2530
24;0.07441899999867019;2530
25;0.07751379999899655;2530
26;0.08035430000018096;2531
27;0.08344729999953415;2531
28;0.08639229999971576;2532
29;0.08945999999923515;2532
30;0.09253649999845948;2532
31;0.09537989999989804;2533
32;0.09841809999852558;2533
33;0.10143069999867294;2533
34;0.10428959999990184;2534
35;0.10743369999909191;2534
36;0.11043059999974503;2534
37;0.11336699999992561;2535
38;0.11649140000008629;2535
39;0.11944969999967725;2535
40;0.12247089999982563;2535
41;0.12523239999973157;2536
42;0.12725959999988845;2537
43;0.13014599999951315;2537
44;0.13224219999938214;2537
45;0.13519579999956477;2537
46;0.13721219999933965;2536
47;0.1392627999994147;2536
48;0.14225299999998242;2536
49;0.14419739999902959;2536
50;0.14626829999906477;2537
51;0.14924509999946167;2537
52;0.1522580000000744;2537
53;0.15420629999971425;2537
54;0.15727549999974144;2536
55;0.15923969999857945;2536
56;0.16131639999912295;2536
57;0.1642281999993429;2536
58;0.16723589999855903;2536
59;0.17036609999922803;2535
60;0.17323669999859703;2535
61;0.176228499998615;2535
62;0.17822239999986778;2535
63;0.1802362999987963;2534
64;0.18223159999979543;2534
65;0.1842704999999114;2534
66;0.18620699999883072;2534
67;0.18921469999986584;2534
68;0.1922322999998869;2533
69;0.1951733999994758;2533
70;0.19728119999854243;2533
71;0.19928709999840066;2533
72;0.20129529999940132;2533
73;0.20325419999971928;2533
74;0.2062804999986838;2533
75;0.20827259999896341;2533
76;0.21026139999958104;2533
77;0.21226209999986168;2534
78;0.21430919999875186;2534
79;0.21729969999978493;2534
80;0.22047749999910593;2533
81;0.22332079999978305;2534
82;0.22626559999844176;2534
83;0.2291654999989987;2534
84;0.23128170000018144;2534
85;0.23412759999882837;2534
86;0.23651969999991707;2534
87;0.23917160000019067;2535
88;0.2412131999990379;2535
89;0.24326769999970566;2535
90;0.24624519999997574;2535
91;0.24929269999847747;2535
92;0.25227349999840953;2535
93;0.2552656999996543;2535
94;0.25826859999870067;2535
95;0.26025099999969825;2535
96;0.26220049999938055;2534
97;0.26416749999953026;2534
98;0.2663178999991942;2535
99;0.26931819999845175;2534
100;0.2714784999989206;2534
101;0.27421379999941564;2533
102;0.27620739999838406;2533
103;0.27922119999857387;2533
104;0.2813962000000174;2532
105;0.2842734999994718;2532
106;0.28748629999972763;2531
107;0.2904687999998714;2531
108;0.2934572999984084;2530
109;0.2964087999989715;2530
110;0.29946059999929275;2529
111;0.3021458999992319;2529
112;0.30462859999897773;2529
113;0.30742429999918386;2528
114;0.3104487999989942;2528
115;0.31318499999906635;2528
116;0.31530369999927643;2528
117;0.3182111999994959;2527
118;0.3205486999995628;2527
119;0.3234132999987196;2527
120;0.3264201000001776;2527
121;0.3295675999997911;2526
122;0.33239919999869016;2526
123;0.33509159999994154;2526
124;0.3373837999988609;2525
125;0.34043629999905534;2525
126;0.3434409000001324;2525
127;0.3461790999990626;2525
128;0.3491567999990366;2525
129;0.35111049999977695;2524
130;0.35321299999850453;2524
131;0.3552313999989565;2524
132;0.35767719999967085;2524
133;0.3616826999987097;2523
134;0.3644730999985768;2523
135;0.36792269999932614;2522
136;0.3718836999996711;2522
137;0.3760631999994075;2521
138;0.38105170000017097;2520
139;0.3850951999993413;2520
140;0.388461799999277;2519
141;0.3913779999984399;2519
142;0.39446719999978086;2518
143;0.39746349999950326;2518
144;0.40030019999903743;2518
145;0.4034660999986954;2517
146;0.40651249999973516;2517
147;0.4094089999998687;2516
148;0.4123585999986972;2516
149;0.4153569999998581;2516
150;0.4182876999984728;2515
151;0.42131309999967925;2515
152;0.4233070999998745;2515
153;0.42625330000009853;2515
154;0.42826269999932265;2515
155;0.43021349999980885;2514
156;0.4322608999991644;2514
157;0.4341642999988835;2513
158;0.4362746999995579;2512
159;0.4380563999984588;2512
160;0.4402219999992667;2511
161;0.4422364000001835;2511
162;0.44422839999970165;2510
163;0.44622769999841694;2510
164;0.44920879999881436;2509
165;0.45123229999990144;2509
166;0.45324019999861775;2508
167;0.45629139999982726;2507
168;0.4581559999987803;2507
169;0.4601576999993995;2506
170;0.4621220999997604;2506
171;0.4641178999991098;2505
172;0.4661116999996011;2505
173;0.4680843999994977;2505
174;0.47021700000004785;2504
175;0.47218059999977413;2504
176;0.4742733999992197;2503
177;0.4771993999984261;2503
178;0.47920089999934135;2502
179;0.48223659999894153;2502
180;0.4850511999993614;2501
181;0.4872724999986531;2500
182;0.49025949999850127;2499
183;0.4931992999991053;2499
184;0.4950996999996278;2498
185;0.4972306999989087;2497
186;0.49920409999867843;2497
187;0.5011746999989555;2496
188;0.503266599998824;2496
189;0.5052007999984198;2495
190;0.5072063999996317;2495
191;0.5092110999994475;2495
192;0.5112081999996008;2494
193;0.5132364000000962;2494
194;0.515401099999508;2493
195;0.518222999999125;2492
196;0.5202833999992436;2492
197;0.52240989999882;2491
198;0.5252382999988185;2491
199;0.527242699999988;2490
200;0.5293519999995624;2490
201;0.532254899999316;2489
202;0.5342690999987099;2489
203;0.5361149000000296;2488
204;0.5393358000001172;2487
205;0.5423276999990776;2487
206;0.5453024999987974;2486
207;0.5483273999998346;2485
208;0.5513099999989208;2484
209;0.5542748999996547;2484
210;0.5572892000000138;2483
211;0.5592786999986856;2482
212;0.5622700999992958;2482
213;0.5652064999994764;2481
214;0.5682202999996662;2480
215;0.5706056999988505;2480
216;0.5732626999997592;2480
217;0.5763278999984323;2479
218;0.5783728999995219;2478
219;0.5811445999988791;2478
220;0.5832261999985349;2477
221;0.5851034999996045;2477
222;0.5875857999999425;2477
223;0.5904071999993903;2477
224;0.5934570999997959;2476
225;0.5965714999983902;2475
226;0.5994794999987789;2474
227;0.6021787999998196;2474
228;0.6054512999999133;2472
229;0.6084878999990906;2471
230;0.6111753999994107;2470
231;0.6144501999988279;2469
232;0.617534599999999;2468
233;0.6206923999998253;2467
234;0.6234825999999885;2466
235;0.6264301999999589;2466
236;0.6304357999997592;2464
237;0.6335137999994913;2463
238;0.6366393999996944;2462
239;0.6397552999987965;2462
240;0.6435845999985759;2460
241;0.6465932999999495;2460
242;0.6493310999994719;2459
243;0.6521286999995937;2458
244;0.6544671999999991;2457
245;0.6575120999987121;2457
246;0.6601224999994884;2456
247;0.6622477000000799;2455
248;0.6652677999991283;2455
249;0.6670571999984531;2454
250;0.6690992999992886;2453
251;0.6712130999985675;2452
252;0.6732550999986415;2452
253;0.6763105999998515;2451
254;0.6781366999985039;2451
255;0.6801197999993747;2450
256;0.682113599999866;2450
257;0.684081100000185;2449
258;0.6860348999998678;2449
259;0.6881084999986342;2448
260;0.690117399999508;2448
261;0.692091499999151;2447
262;0.6940985000001092;2447
263;0.6960614999989048;2446
264;0.6980245999984618;2446
265;0.7000373999999283;2445
266;0.7021078999987367;2444
267;0.7041156999985105;2444
268;0.7061777999988408;2444
269;0.7079973999989306;2443
270;0.7099929999985761;2442
271;0.7119996000001265;2442
272;0.7140998999984731;2441
273;0.7160454999993817;2440
274;0.7180625000000873;2439
275;0.7201072999996541;2438
276;0.7221185999987938;2438
277;0.7240438999997423;2437
278;0.7260441999987961;2436
279;0.7281306999993831;2435
280;0.7301893999992899;2434
281;0.7321673999995255;2433
282;0.7341110999986995;2433
283;0.736201899999287;2432
284;0.7380603000001429;2431
285;0.7402003999995941;2430
286;0.743099399998755;2430
287;0.7449902999996993;2429
288;0.7471391999988555;2428
289;0.7491095999994286;2427
290;0.7511063999991165;2427
291;0.7530759000001126;2426
292;0.7552126999999018;2426
293;0.7572415999984514;2425
294;0.7601384999998118;2424
295;0.7621755999989546;2423
296;0.7642255999999179;2423
297;0.7661570999989635;2422
298;0.7681369000001723;2421
299;0.7702712999998766;2421
300;0.773267799999303;2420
301;0.7762656999984756;2419
302;0.7782522999987123;2418
303;0.7802918999987014;2417
304;0.7833055999999488;2417
305;0.7851218999985576;2416
306;0.7873196000000462;2415
307;0.7902022999987821;2414
308;0.7931465999990905;2414
309;0.7952466999995522;2413
310;0.7970758999999816;2413
311;0.799062000000049;2412
312;0.801107299999785;2412
313;0.8031257999991794;2411
314;0.805116800000178;2411
315;0.8070927999997366;2411
316;0.8091108999997232;2410
317;0.8110916999994515;2410
318;0.8131027999988873;2410
319;0.8151400999995531;2409
320;0.8171200999986468;2409
321;0.8191104999987147;2409
322;0.8211114999994606;2408
323;0.8232086999996682;2408
324;0.8251120999993873;2407
325;0.8271296999992046;2406
326;0.8291085000000749;2406
327;0.8310262999984843;2406
328;0.8331257999998343;2405
329;0.8352427999998326;2405
330;0.8372467999997752;2404
331;0.8392436999984056;2404
332;0.8412622999985615;2403
333;0.8431523999988713;2402
334;0.8452034999991156;2401
335;0.8472376999998232;2401
336;0.8492060999997193;2400
337;0.8512050999997882;2400
338;0.8531993999986298;2399
339;0.8561976999990293;2398
340;0.858230599998933;2398
341;0.8602130999988731;2397
342;0.8633688999998412;2396
343;0.8651892999987467;2395
344;0.8671947999991971;2394
345;0.8692487999996956;2393
346;0.8712636999989627;2392
347;0.8732560999997077;2391
348;0.8752640999991854;2391
349;0.877124199998434;2390
350;0.8792058999988512;2389
351;0.8811981999988348;2388
352;0.8832376999998814;2387
353;0.886134200000015;2387
354;0.8882359999988694;2385
355;0.8905259999992268;2384
356;0.8932687999986229;2383
357;0.8961406999987958;2382
358;0.8981330999995407;2381
359;0.9001620999988518;2381
360;0.9023545999989437;2380
361;0.905230099999244;2379
362;0.9072257999996509;2378
363;0.909271999998964;2377
364;0.9112728999989486;2376
365;0.9142830000000686;2376
366;0.9162598999992042;2375
367;0.9181880999985879;2375
368;0.9202430999994249;2374
369;0.9221711999998661;2374
370;0.9241684999997233;2373
371;0.9272722999994585;2372
372;0.9291787999991357;2372
373;0.9311395999993692;2371
374;0.9330986999993911;2371
375;0.935190700000021;2370
376;0.9371001999988948;2370
377;0.9392431999986002;2369
378;0.9412143999998079;2369
379;0.9432479999995849;2369
380;0.94525959999919;2368
381;0.9472066999987874;2367
382;0.9492111999988992;2367
383;0.9522134999988339;2366
384;0.9542285999996238;2365
385;0.9561364999990474;2365
386;0.9582314999988739;2364
387;0.960234499998478;2364
388;0.9622190999998566;2363
389;0.964210499998444;2363
390;0.9672316999985924;2362
391;0.9691769000000932;2362
392;0.971231199999238;2361
393;0.9731612999985373;2361
394;0.9751964999995835;2361
395;0.9772020000000339;2360
396;0.979404899999281;2360
397;0.9822046999997838;2359
398;0.9842501999992237;2358
399;0.9862993999995524;2358
400;0.9892122999990534;2357
401;0.9912557999996352;2356
402;0.9930410999986634;2355
403;0.9952311999986705;2355
404;0.997241799999756;2355
405;0.999261299999489;2354
406;1.0012127999998484;2354
407;1.0032087999989017;2353
408;1.005232800000158;2353
409;1.0073188999995182;2352
410;1.0101244999987102;2352
411;1.012178099999801;2351
412;1.0142333999992843;2351
413;1.0162421999993967;2350
414;1.0181456999998773;2350
415;1.0203248999987409;2349
416;1.0232074999985343;2349
417;1.0252356000000873;2349
418;1.027385499999582;2349
419;1.0302056999989873;2348
420;1.0322369999994407;2348
421;1.0342767999991338;2348
422;1.0362131999991107;2348
423;1.0382639999988896;2348
424;1.0402309000000969;2347
425;1.042211199999656;2347
426;1.0441397999984474;2346
427;1.0461340000001655;2346
428;1.0481560999996873;2345
429;1.0501200999988214;2345
430;1.052169499998854;2344
431;1.054250299999694;2344
432;1.0572353999996267;2344
433;1.0592632999996567;2344
434;1.0611969000001409;2344
435;1.063255199998821;2344
436;1.0662377999997261;2343
437;1.068161399998644;2343
438;1.0702525999986392;2343
439;1.072246300000188;2342
440;1.0742581999984395;2342
441;1.0762408999999025;2342
442;1.0782339999987016;2342
443;1.0802628000001278;2342
444;1.0832461999998486;2341
445;1.0852715999990323;2341
446;1.0872470999984216;2341
447;1.089246199999252;2340
448;1.0912641999984771;2340
449;1.0932687999993504;2339
450;1.095146300000124;2339
451;1.0972839999994903;2339
452;1.0992129999995086;2338
453;1.1021234999989247;2338
454;1.1042101999992155;2337
455;1.1062082999997074;2337
456;1.109221400000024;2336
457;1.1112481000000116;2335
458;1.1131797999987612;2335
459;1.1162432999990415;2334
460;1.119225299999016;2334
461;1.121250099999088;2333
462;1.1231656999989355;2333
463;1.1252264999984618;2332
464;1.1272413999995479;2332
465;1.1292517999991105;2332
466;1.1312319999997271;2331
467;1.1332311999995;2331
468;1.135214999998425;2331
469;1.1372507999985828;2330
470;1.1392531000001327;2330
471;1.1412403999984235;2330
472;1.1431928999991214;2330
473;1.1453176999984862;2329
474;1.1482473999985814;2329
475;1.151221499998428;2329
476;1.1532584999986284;2328
477;1.155248399998527;2328
478;1.1582616999985476;2328
479;1.1601541999989422;2328
480;1.162229399998978;2328
481;1.1642360999994708;2328
482;1.1662672999991628;2327
483;1.1681936999993923;2327
484;1.1702900000000227;2327
485;1.1723083999986557;2327
486;1.1742323999988002;2327
487;1.1761763999984396;2327
488;1.1782591999999568;2326
489;1.1802993999990576;2326
490;1.182255300000179;2326
491;1.1842156999991857;2326
492;1.1863065999987157;2327
493;1.188266699999076;2327
494;1.1902985999986413;2326
495;1.1922751999991306;2326
496;1.1942619000001287;2327
497;1.1962671000001137;2327
498;1.1982876999991277;2327
499;1.200254599998516;2327
500;1.2021328999999241;2327
501;1.2044752999991033;2327
502;1.2072510999987571;2327
503;1.2092787000001408;2327
504;1.2111628999991808;2327
505;1.213279199999306;2327
506;1.2152502999997523;2327
507;1.2172710999984702;2327
508;1.2192930999990494;2327
509;1.2212934999988647;2327
510;1.2232814999988477;2326
511;1.2252176000001782;2326
512;1.228219499998886;2326
513;1.230046399999992;2326
514;1.2320512999995117;2326
515;1.2340740999989066;2326
516;1.2361378999994486;2326
517;1.238190999998551;2327
518;1.2401561999995465;2327
519;1.2421558999994886;2327
520;1.244154099998923;2327
521;1.2463207000000693;2327
522;1.2492728999986866;2327
523;1.2512987999998586;2327
524;1.2532753999985289;2327
525;1.2552314999993541;2327
526;1.2572064999985741;2327
527;1.2591991999997845;2326
528;1.261218399999052;2327
529;1.2631946000001335;2327
530;1.2652283999996143;2327
531;1.2672320000001491;2327
532;1.269253899999967;2327
533;1.271360699998695;2327
534;1.2732078999997611;2327
535;1.2752024000001256;2327
536;1.2772076999990531;2328
537;1.279560399998445;2328
538;1.2825487999998586;2327
539;1.2850378999992245;2327
540;1.2875875999998243;2327
541;1.2904641999994055;2328
542;1.2934845999989193;2328
543;1.2964365999996517;2328
544;1.299483799999507;2328
545;1.3022468999988632;2328
546;1.305440099999032;2328
547;1.3084626999989268;2329
548;1.3114405999986047;2329
549;1.3144648999987112;2329
550;1.3174436999997852;2329
551;1.3204893000001903;2330
552;1.323486999999659;2330
553;1.3264853000000585;2331
554;1.3295338999996602;2331
555;1.3325385999996797;2332
556;1.335158699999738;2332
557;1.3377012000000832;2332
558;1.3405566999990697;2333
559;1.3435277999997197;2333
560;1.346547199998895;2333
561;1.3495558999984496;2333
562;1.3522256999985984;2333
563;1.3555326999994577;2334
564;1.358531399999265;2334
565;1.3615340999986074;2334
566;1.3645840999997745;2334
567;1.3675022999996145;2334
568;1.369311699998434;2335
569;1.3725080999993224;2335
570;1.375514800000019;2336
571;1.378506399998514;2336
572;1.381538499999806;2336
573;1.3845345999998244;2336
574;1.3875353999992512;2336
575;1.3905400999992708;2336
576;1.3935366999994585;2337
577;1.3963441999985662;2337
578;1.3995309000001726;2337
579;1.4023604999983945;2337
580;1.4055422000001272;2337
581;1.4085347999989608;2338
582;1.4114333999987139;2338
583;1.4145379000001412;2338
584;1.4175243999998202;2339
585;1.420537299998614;2339
586;1.4235314999987168;2340
587;1.4265357999993284;2340
588;1.4292369999984658;2341
589;1.43306339999981;2341
590;1.4365366000001814;2342
591;1.4406584999996994;2343
592;1.4433393999988766;2343
593;1.4463293999997404;2344
594;1.449466999998549;2344
595;1.4521757999991678;2344
596;1.4543422999995528;2345
597;1.457412399999157;2346
598;1.460403299999598;2346
599;1.4634680999988632;2347
600;1.4665088999990985;2347
601;1.4695286999995005;2348
602;1.4725332999987586;2348
603;1.4755499999992026;2349
604;1.478522499999599;2350
605;1.481549999998606;2350
606;1.4845234999993409;2351
607;1.4875231999994867;2351
608;1.490190699998493;2352
609;1.493520099998932;2352
610;1.496527799999967;2353
611;1.4995227999988856;2354
612;1.5023357999998552;2354
613;1.5056164999987232;2355
614;1.5089157999991585;2355
615;1.5129182000000583;2356
616;1.5170015999992756;2357
617;1.5207871999991767;2357
618;1.5251701999986835;2358
619;1.5304412999994383;2359
620;1.5353857999998581;2360
621;1.5401316999996197;2361
622;1.5437567999997555;2362
623;1.5480393999987427;2363
624;1.5520693999987998;2364
625;1.5553747999983898;2364
626;1.5583517999984906;2365
627;1.5614182999997865;2366
628;1.5644379999994271;2366
629;1.5674361000001227;2366
630;1.570373999998992;2367
631;1.5733503999999812;2368
632;1.576351199999408;2368
633;1.5809706000000006;2369
634;1.584776099998635;2370
635;1.5878082999988692;2371
636;1.5916176999999152;2372
637;1.5944992999993701;2373
638;1.59753229999842;2374
639;1.6003550999994332;2375
640;1.6021239000001515;2376
641;1.60422109999854;2376
642;1.6072250999986863;2377
643;1.6092069999995147;2378
644;1.6127809999998135;2378
645;1.6155614999988757;2379
646;1.61815359999855;2380
647;1.6204034999991563;2380
648;1.6235048999988066;2381
649;1.6264973999986978;2382
650;1.629522100000031;2383
651;1.6323779999984254;2384
652;1.6351454999985435;2385
653;1.6373313999993115;2386
654;1.6405110999985482;2387
655;1.6434668999991118;2387
656;1.6466831999987335;2389
657;1.6495160999984364;2390
658;1.6522753999997803;2390
659;1.6553938999986713;2391
660;1.6585242000001017;2392
661;1.6614410999991378;2393
662;1.6643071999988024;2393
663;1.667554999999993;2393
664;1.6710330999994767;2394
665;1.6749548999996478;2395
666;1.6785927999990236;2396
667;1.6818394000001717;2397
668;1.6842652999985148;2398
669;1.686264999998457;2398
670;1.6882413999992423;2399
671;1.691290199998548;2400
672;1.69325199999912;2401
673;1.6953046999988146;2401
674;1.6971907999995892;2402
675;1.6991979999984324;2403
676;1.701212799998757;2403
677;1.703215999999884;2404
678;1.705196099999739;2405
679;1.707213599998795;2405
680;1.7092240000001766;2406
681;1.7112251999988075;2406
682;1.7142632999984926;2407
683;1.7172762999998668;2408
684;1.7193062999995163;2409
685;1.7222868999997445;2410
686;1.7243006999997306;2411
687;1.7261731999988115;2411
688;1.7282065999988845;2412
689;1.7303229999997711;2413
690;1.732261399998606;2413
691;1.734251799998674;2414
692;1.7362208999984432;2415
693;1.7382278999994014;2415
694;1.7402186999988771;2416
695;1.7432472000000416;2417
696;1.7452728999996907;2418
697;1.7472803999989992;2418
698;1.7492564999993192;2419
699;1.751250399998753;2419
700;1.7532776999996713;2420
701;1.7552619999987655;2420
702;1.7582913999995071;2421
703;1.7612657999998191;2422
704;1.7633152999987942;2423
705;1.7662712000001193;2423
706;1.7680650999991485;2425
707;1.7702687000000878;2425
708;1.7722949999988487;2426
709;1.774111199998515;2426
710;1.7762059999986377;2427
711;1.7781361999986984;2427
712;1.78011129999868;2428
713;1.7821255999988352;2428
714;1.78409659999852;2429
715;1.7861426999988907;2430
