;time;amplitude
0;0.003964400000768364;2428
1;0.007947300000523683;2429
2;0.012949400001161848;2431
3;0.017238100001122802;2432
4;0.022424700000556186;2433
5;0.027338500000041677;2435
6;0.03244210000048042;2437
7;0.03744400000141468;2438
8;0.042450800001461175;2440
9;0.0468261000005441;2442
10;0.05118560000119032;2443
11;0.05516200000056415;2445
12;0.059191199999986566;2446
13;0.06268860000091081;2447
14;0.0672312000006059;2448
15;0.0711607000012009;2449
16;0.07531050000034156;2450
17;0.07874600000104692;2451
18;0.08321539999997185;2453
19;0.08715520000077959;2454
20;0.09123139999974228;2456
21;0.0949601000011171;2457
22;0.09908069999983127;2458
23;0.10311450000153854;2460
24;0.10719470000003639;2461
25;0.11063480000120762;2463
26;0.11365579999983311;2464
27;0.11789610000050743;2465
28;0.12187580000136222;2466
29;0.1257638000006409;2467
30;0.12978710000061255;2469
31;0.1328473000012309;2470
32;0.13683930000115652;2471
33;0.1407364000006055;2472
34;0.14463190000060422;2473
35;0.14783270000043558;2475
36;0.15183820000129344;2476
37;0.15484900000046764;2477
38;0.15883530000064638;2478
39;0.16284410000116623;2479
40;0.16684100000020408;2480
41;0.16982129999996687;2481
42;0.17274600000018836;2482
43;0.1767424999998184;2483
44;0.179861600001459;2484
45;0.18383370000083232;2485
46;0.18780660000084026;2486
47;0.19077740000102494;2487
48;0.19379180000032648;2487
49;0.19676200000139943;2488
50;0.19976870000027702;2489
51;0.20259679999981017;2490
52;0.20575880000069446;2491
53;0.20979310000075202;2492
54;0.21279150000009395;2493
55;0.21676190000107454;2494
56;0.21949040000072273;2495
57;0.2225612000002002;2496
58;0.2254561999998259;2496
59;0.22841740000149002;2497
60;0.2315214999998716;2498
61;0.23428600000079314;2499
62;0.23622120000072755;2500
63;0.239456400000563;2500
64;0.24300100000073144;2502
65;0.24702220000108355;2502
66;0.250928000001295;2503
67;0.2548690000003262;2504
68;0.2577705000003334;2505
69;0.2607110000008106;2506
70;0.2635392000011052;2506
71;0.26664660000096774;2508
72;0.2696534000006068;2509
73;0.2727028999997856;2509
74;0.2756819000005635;2509
75;0.27827179999985674;2510
76;0.28150749999986147;2510
77;0.28447270000106073;2511
78;0.2874107000006916;2512
79;0.2906290999999328;2513
80;0.29364950000126555;2513
81;0.29631850000077975;2513
82;0.29830500000025495;2514
83;0.30161779999980354;2515
84;0.3046633000012662;2515
85;0.3076398000011977;2516
86;0.31063739999990503;2518
87;0.313655200001449;2518
88;0.3166252999999415;2519
89;0.31962620000012976;2520
90;0.3226276000004873;2521
91;0.32546390000061365;2521
92;0.32837370000015653;2522
93;0.33133470000029774;2523
94;0.3334415999997873;2523
95;0.3364132000006066;2524
96;0.33941560000130266;2524
97;0.34241730000030657;2524
98;0.34523150000131864;2525
99;0.34749230000124953;2525
100;0.35041570000066713;2526
101;0.3534429999999702;2527
102;0.3564455000014277;2527
103;0.3592461000007461;2528
104;0.3624314000007871;2528
105;0.36544250000042666;2528
106;0.3684372000006988;2529
107;0.3714106000006723;2529
108;0.37446340000133205;2529
109;0.3774167000010493;2530
110;0.3794202999997651;2530
111;0.3824259000011807;2530
112;0.3854761000002327;2530
113;0.3884066000009625;2531
114;0.39036980000128096;2531
115;0.3924283000014839;2531
116;0.3952331000000413;2531
117;0.3984056999997847;2532
118;0.40144970000073954;2532
119;0.40439950000109093;2533
120;0.40796210000007704;2533
121;0.41145289999985835;2534
122;0.41493369999989227;2535
123;0.4188943000008294;2535
124;0.4224267999998119;2536
125;0.42585870000038994;2536
126;0.42989959999977145;2537
127;0.4338913000010507;2538
128;0.43767210000078194;2538
129;0.4403581000005943;2538
130;0.4431992000008904;2539
131;0.4463802000009309;2539
132;0.44993539999995846;2539
133;0.4534843000001274;2539
134;0.45685430000048655;2539
135;0.4595294000009744;2539
136;0.46255380000002333;2540
137;0.465620900000431;2540
138;0.4685918000013771;2540
139;0.4716383000013593;2540
140;0.4746496000007028;2540
141;0.47773680000136665;2539
142;0.4806475000004866;2539
143;0.48364410000067437;2539
144;0.4866369000010309;2539
145;0.48963300000104937;2539
146;0.49263020000034885;2539
147;0.4956361000004108;2539
148;0.4986281000001327;2539
149;0.5016345000003639;2538
150;0.5044496999998955;2538
151;0.5074013000012201;2538
152;0.5104425000008632;2538
153;0.5134783000012249;2538
154;0.516537999999855;2538
155;0.5196022000000085;2538
156;0.5226492000001599;2538
157;0.5254523000003246;2538
158;0.528353400000924;2538
159;0.5319255000013072;2538
160;0.535737500000323;2538
161;0.5385321000012482;2538
162;0.5416728000000148;2538
163;0.5445791000001918;2538
164;0.5474891000012576;2538
165;0.5492114000007859;2538
166;0.5511829000006401;2538
167;0.5531826000005822;2538
168;0.5554081000009319;2538
169;0.5583849000013288;2537
170;0.5612921000010829;2537
171;0.564976800000295;2537
172;0.5688801000014791;2537
173;0.5728854000008141;2536
174;0.5768896000008681;2536
175;0.5796808000013698;2536
176;0.5826901000000362;2536
177;0.5856935000010708;2535
178;0.588752999999997;2535
179;0.5917108000012377;2534
180;0.5944166999997833;2534
181;0.5973189000014827;2534
182;0.5993087000006199;2534
183;0.6012819000006857;2534
184;0.6046163000009983;2533
185;0.6076223000000027;2533
186;0.6103056000010838;2533
187;0.6125509000012244;2533
188;0.615650600000663;2532
189;0.6186355999998341;2532
190;0.6216526000007434;2533
191;0.6246404000012262;2532
192;0.6273498000009567;2532
193;0.629331900001489;2532
194;0.631318800000372;2532
195;0.6333303999999771;2532
196;0.6353040000012697;2532
197;0.6385437000008096;2532
198;0.6414801999999327;2531
199;0.6444683000008808;2531
200;0.6475639000000228;2531
201;0.6506279000004724;2531
202;0.6536286999998993;2530
203;0.6565945000002102;2530
204;0.6591945000000123;2530
205;0.6622698000010132;2530
206;0.6654047000010905;2529
207;0.668513399999938;2529
208;0.6714050999999017;2529
209;0.6732379000004585;2528
210;0.6754110000001674;2528
211;0.6782774000002973;2528
212;0.6813971999999922;2527
213;0.6844302000008611;2527
214;0.6874310000002879;2526
215;0.6909613000007084;2526
216;0.6947882000004029;2525
217;0.6978747000011936;2524
218;0.7018891000006988;2524
219;0.7057724000005692;2523
220;0.7085421000010683;2523
221;0.7114450000008219;2522
222;0.7146269000004395;2521
223;0.717615499999738;2521
224;0.7205318000014813;2520
225;0.723447500000475;2520
226;0.7264438000001974;2520
227;0.729638500000874;2519
228;0.7326276000003418;2518
229;0.735484800001359;2518
230;0.7388031000009505;2518
231;0.7429615000000922;2517
232;0.747087300000203;2516
233;0.7511773000005633;2516
234;0.7550693000011961;2514
235;0.7591833000005863;2514
236;0.7639261000003899;2512
237;0.7686923000001116;2511
238;0.7728258000006463;2510
239;0.7767460000013671;2509
240;0.7794545000015205;2508
241;0.7825838999997359;2508
242;0.785456499999782;2507
243;0.7900189000010869;2507
244;0.7940967000013188;2506
245;0.7979678000010608;2505
246;0.8019327000001795;2504
247;0.8059360000006563;2503
248;0.809945200000584;2502
249;0.8128636000001279;2501
250;0.8169440000001487;2500
251;0.8197182000003522;2499
252;0.8237043999997695;2499
253;0.8266578000002482;2498
254;0.8296711000002688;2497
255;0.8326243000010436;2497
256;0.8356074000002991;2497
257;0.8385698000001867;2496
258;0.8416585000013583;2496
259;0.8444202999999106;2494
260;0.8476852000003419;2494
261;0.8506515000008221;2493
262;0.8536552000005031;2492
263;0.8566442999999708;2491
264;0.8594692000006035;2490
265;0.8624358000015491;2489
266;0.8654311999998754;2488
267;0.8689343000005465;2487
268;0.8727294000000256;2486
269;0.8757110000005923;2485
270;0.879759000001286;2484
271;0.882602700001371;2483
272;0.8856233000005886;2482
273;0.8884928000006767;2481
274;0.8916719000008015;2480
275;0.8943988000009995;2479
276;0.8976760000005015;2479
277;0.900675400000182;2477
278;0.9036673000009614;2476
279;0.906480499999816;2475
280;0.9092644000011205;2474
281;0.9124377000007371;2473
282;0.9154388000006293;2473
283;0.9184432000001834;2472
284;0.9214482000006683;2471
285;0.9242516000012984;2471
286;0.9274784000008367;2470
287;0.9310629999999946;2469
288;0.9349720000009256;2468
289;0.9388784000002488;2467
290;0.9418710999998439;2466
291;0.9457163000006403;2465
292;0.9486517000004824;2465
293;0.9516419999999925;2464
294;0.9546429000001808;2464
295;0.957354199999827;2463
296;0.9604938000011316;2462
297;0.9635620999997627;2461
298;0.9666741000000911;2460
299;0.9695808000014949;2459
300;0.9724646000013308;2458
301;0.9754694000002928;2458
302;0.9782623000010062;2457
303;0.9814643999998225;2456
304;0.9844474000001355;2456
305;0.9872633000013593;2455
306;0.9893122000012227;2454
307;0.992420000000493;2453
308;0.9954018000007636;2452
309;0.9984481999999844;2451
310;1.0014327999997477;2450
311;1.0044323000001896;2450
312;1.0074249000008422;2449
313;1.0104740000006132;2448
314;1.0138022000010096;2448
315;1.0183372000010422;2447
316;1.023450700000467;2445
317;1.0285070999998425;2443
318;1.0333668000002945;2441
319;1.0383027000007132;2438
320;1.0430496000008134;2437
321;1.0469718000003922;2434
322;1.0509253000000172;2433
323;1.054652900000292;2432
324;1.057629700000689;2430
325;1.060536900000443;2429
326;1.0634325999999419;2428
327;1.0664658000005147;2428
328;1.0694215000003169;2427
329;1.0729523999998491;2426
330;1.077037900000505;2424
331;1.08097380000072;2423
332;1.0833645000002434;2421
333;1.0869701999999961;2420
334;1.0909003000015218;2418
335;1.0945485000011104;2417
336;1.098933200000829;2415
337;1.1013037000011536;2414
338;1.1044508000013593;2414
339;1.1076415000006818;2413
340;1.1106497000000672;2412
341;1.113668800000596;2412
342;1.1166721000008692;2411
343;1.1196672000005492;2410
344;1.1226703000011184;2409
345;1.1256738000010955;2408
346;1.1283598000009079;2407
347;1.1316662999997789;2406
348;1.1346634000001359;2405
349;1.1376725000009174;2404
350;1.140677000001233;2402
351;1.1432822000006126;2401
352;1.1464379000008194;2400
353;1.149949700000434;2399
354;1.1540371000010055;2398
355;1.157980600000883;2397
356;1.1614805000008346;2396
357;1.1648971000013262;2395
358;1.168932100001257;2394
359;1.1729227000014362;2393
360;1.176941400000942;2391
361;1.1799042000002373;2390
362;1.1839365000014368;2389
363;1.1879160000007687;2387
364;1.1920134000010876;2387
365;1.1956156000014744;2385
366;1.1999997000002622;2384
367;1.2039034000008542;2383
368;1.2073103000002448;2382
369;1.2103431000014098;2382
370;1.2136074999998527;2381
371;1.2166489000010188;2381
372;1.2196314000011625;2380
373;1.222433099999762;2379
374;1.2254315999998653;2379
375;1.2282491000005393;2378
376;1.230446600000505;2377
377;1.2334246999998868;2376
378;1.2364835000007588;2375
379;1.2393874999997934;2375
380;1.2429996999999275;2374
381;1.2470282000012958;2373
382;1.25091059999977;2372
383;1.2548939000007522;2371
384;1.2589146999998775;2369
385;1.2629042000007757;2368
386;1.2668654000008246;2366
387;1.2709255999998277;2366
388;1.2749293000015314;2364
389;1.2784394000009343;2363
390;1.2816856000008556;2362
391;1.284494600000471;2360
392;1.2876904000004288;2360
393;1.290685800000574;2359
394;1.2936823000000004;2358
395;1.2966311000000132;2357
396;1.2996022000006633;2356
397;1.3023150999997597;2355
398;1.3056292000001122;2355
399;1.3086235000009765;2354
400;1.3113626000013028;2353
401;1.314628400001311;2353
402;1.317214700000477;2353
403;1.3202491000010923;2352
404;1.3224459000011848;2352
405;1.3254295000006096;2351
406;1.3283296000008704;2351
407;1.330433000000994;2350
408;1.33343910000076;2350
409;1.335392500001035;2349
410;1.3384750000004715;2349
411;1.3419021000008797;2348
412;1.3458716000004642;2348
413;1.3502523000006477;2347
414;1.3552981000011641;2346
415;1.359989399999904;2345
416;1.3642448999999033;2344
417;1.3693333999999595;2344
418;1.372963100000561;2344
419;1.3767643999999564;2343
420;1.3797518999999738;2343
421;1.384179500000755;2342
422;1.3881547000000865;2341
423;1.392139400000815;2340
424;1.3955233000015141;2339
425;1.398567500000354;2339
426;1.4014818000014202;2338
427;1.404795100001138;2338
428;1.4090642999999545;2337
429;1.413011300001017;2337
430;1.4170656000005692;2337
431;1.4210350000012113;2336
432;1.4250750000010157;2336
433;1.4283057000011468;2336
434;1.4315048000007664;2335
435;1.4349336000013864;2334
436;1.4390139000006457;2334
437;1.4424839000002976;2333
438;1.4455502000000706;2332
439;1.4486649000009493;2332
440;1.4516589000013482;2331
441;1.4546602999998868;2331
442;1.4576749000007112;2331
443;1.4606469000009383;2331
444;1.4636700000010023;2330
445;1.4664936999997735;2330
446;1.469702000000325;2330
447;1.4726138000005449;2329
448;1.4756756000006135;2329
449;1.4785153000011633;2329
450;1.4816681000011158;2329
451;1.484673400000247;2328
452;1.4874866000009206;2327
453;1.4904464000010194;2327
454;1.4934427000007418;2326
455;1.4954782000004343;2326
456;1.4984608000013395;2325
457;1.5015385000006063;2325
458;1.5042905999998766;2324
459;1.5074323000008008;2324
460;1.5092442000004667;2324
461;1.5112311000011687;2324
462;1.5133987000008347;2324
463;1.516435300000012;2324
464;1.5194277000009606;2324
465;1.524049900001046;2323
466;1.527947900000072;2323
467;1.5319049000008818;2323
468;1.5354603000014322;2323
469;1.538460200001282;2324
470;1.5402462000001833;2324
471;1.542436000001544;2324
472;1.5454343000001245;2324
473;1.5484078999998019;2324
474;1.551350800000364;2324
475;1.5544084000011935;2324
476;1.5579888000011124;2325
477;1.5615249000002223;2325
478;1.5648676000000705;2325
479;1.5690324000006513;2325
480;1.5729064000006474;2326
481;1.5769173000007868;2326
482;1.5799045000003389;2326
483;1.583938700001454;2327
484;1.5880647000012686;2326
485;1.5918829000002006;2326
486;1.5958909000000858;2326
487;1.5999355000003561;2327
488;1.6039158000003226;2326
489;1.6079211000014766;2326
490;1.6114658000005875;2326
491;1.614906200000405;2326
492;1.6178188000012597;2327
493;1.6205347000013717;2327
494;1.6235324999997829;2327
495;1.6265405000012834;2327
496;1.6295316000014282;2327
497;1.632520500001192;2327
498;1.6355473000003258;2328
499;1.6385502000011911;2328
500;1.6415438000003633;2328
501;1.6443960000015068;2329
502;1.6472819000009622;2329
503;1.6502538000004279;2329
504;1.6524499000006472;2330
505;1.65543130000151;2330
506;1.6584244000005128;2330
507;1.66140919999998;2331
508;1.6648265000003448;2331
509;1.668790400000944;2332
510;1.671776500001215;2332
511;1.6756139999997686;2333
512;1.6784364000013738;2333
513;1.6815654000001814;2334
514;1.684535300000789;2334
515;1.6878142000005028;2334
516;1.6918885000013688;2335
517;1.6959228000014264;2335
518;1.7003813000010268;2336
519;1.705383600001369;2337
520;1.7099061999997502;2337
521;1.7141784000014013;2337
522;1.717809200001284;2338
523;1.7221856000014668;2338
524;1.7261257999998634;2338
525;1.730109199999788;2339
526;1.7341460000006919;2339
527;1.738157499999943;2340
528;1.7431914000007964;2340
529;1.747203000000809;2341
530;1.7509975000011764;2342
531;1.7553404000009323;2342
532;1.7586153000011109;2343
533;1.7626424000009138;2343
534;1.765924500001347;2343
535;1.7698549000015191;2344
536;1.7738272000005963;2345
537;1.7778381000007357;2345
538;1.78213390000019;2346
539;1.7861092000002827;2347
540;1.789551300000312;2348
541;1.793141400001332;2349
542;1.7971206000001985;2349
543;1.801070700001219;2350
544;1.8049624000013864;2351
545;1.8090198999998393;2352
546;1.8129765000012412;2353
547;1.8169956000001548;2354
548;1.8210173000006762;2354
549;1.824975400000767;2355
550;1.8284819000000425;2356
551;1.8319747000005009;2357
552;1.8359742000011465;2357
553;1.8399855000006937;2358
554;1.8440332999998645;2359
555;1.846966600000087;2360
556;1.8509454000013648;2361
557;1.854996400001255;2362
558;1.8590115000006335;2362
559;1.8629551000012725;2363
560;1.8664841000008892;2364
561;1.8694840000007389;2365
562;1.8727132000003621;2366
563;1.875695500000802;2367
564;1.878401500000109;2367
565;1.8813991000006354;2367
566;1.8847468000003573;2368
567;1.887715599999865;2370
568;1.8907023000010668;2370
569;1.8936797000005754;2371
570;1.8966850000015256;2372
571;1.8997030000009545;2373
572;1.9027015000010579;2374
573;1.9056919000013295;2375
574;1.908700800000588;2376
575;1.9114287000011245;2377
576;1.9145184000008157;2378
577;1.9175040000009176;2379
578;1.9205409000005602;2380
579;1.9235065000011673;2381
580;1.9278834000015195;2382
581;1.9325391000002128;2383
582;1.937533300000723;2385
583;1.942539300000135;2386
584;1.947019299999738;2388
585;1.9511221000011574;2389
586;1.955299900000682;2390
587;1.9593067000005249;2391
588;1.9629730000015115;2393
589;1.9673144000007596;2394
590;1.9722827000005054;2395
591;1.9760182999998506;2396
592;1.9797570999999152;2397
593;1.9826756000002206;2397
594;1.9860316000012972;2398
595;1.98981140000069;2399
596;1.9927837000013824;2400
597;1.9956048000003648;2401
598;1.9996812999997928;2402
599;2.0026828999998543;2403
600;2.005694500001482;2404
601;2.0086983000001055;2405
602;2.011415200000556;2406
603;2.0147348000009515;2407
604;2.0177136000002065;2408
605;2.0207141999999294;2409
606;2.023707000000286;2410
607;2.0267014000000927;2411
608;2.0296941000015067;2411
609;2.032704500001273;2412
610;2.035702000001038;2413
611;2.0385006000014982;2414
612;2.0431047000001854;2415
613;2.0472465000002558;2416
614;2.0525696000004245;2418
615;2.05756029999975;2420
616;2.0619335000010324;2421
617;2.066286500001297;2423
618;2.0701638000009552;2424
619;2.075296300001355;2425
620;2.0787371000005805;2426
621;2.0833233000012115;2428
622;2.0877460000010615;2429
623;2.0915294000005815;2430
624;2.0946420000000217;2431
625;2.0979912000002514;2432
626;2.101549500001056;2433
627;2.1060207999998966;2434
628;2.110030200001347;2436
629;2.1128275000010035;2437
630;2.115948300001037;2438
631;2.1200392999999167;2439
632;2.1240161000005173;2441
633;2.127692100000786;2442
634;2.1309661000013875;2443
635;2.1350633000001835;2444
636;2.1389955000013288;2446
637;2.1430005000001984;2448
638;2.1459592999999586;2449
639;2.149954100001196;2450
640;2.1540005000006204;2452
641;2.1579885999999533;2453
642;2.1615529999999126;2454
643;2.1660004000004847;2456
644;2.170008000000962;2457
645;2.1739894000002096;2458
646;2.177675000000818;2459
647;2.1809742000004917;2460
648;2.183983500000977;2461
649;2.1879822999999305;2462
650;2.1920614000009664;2463
651;2.195657600001141;2464
652;2.198753000000579;2464
653;2.2015855999998166;2465
654;2.2046841000010318;2466
655;2.207685200000924;2467
656;2.210745600001246;2467
657;2.213705000000118;2468
658;2.216697400001067;2469
659;2.219712600001003;2470
660;2.222707700000683;2470
661;2.2257021000004897;2471
662;2.228579800001171;2472
663;2.2317087999999785;2473
664;2.2347010000012233;2474
665;2.237514200000078;2475
666;2.2405333000006067;2475
667;2.243428400000994;2477
668;2.2454243000011047;2477
669;2.2479092000012315;2478
670;2.252064700000119;2479
671;2.2559632000011334;2481
672;2.2599503000001278;2482
673;2.262947000001077;2483
674;2.266947500000242;2485
675;2.2698971000008896;2486
676;2.2737840000008873;2487
677;2.276704100000643;2488
678;2.2794862000009743;2489
679;2.28251580000142;2490
680;2.285431800000879;2491
681;2.288593299999775;2492
682;2.291761399999814;2492
683;2.2945620999998937;2493
684;2.2977296999997634;2494
685;2.300698900000498;2494
686;2.303705100001025;2495
687;2.306320700001379;2496
688;2.3082923000001756;2497
689;2.311307800000577;2497
690;2.313443600000028;2498
691;2.316456200000175;2498
692;2.319893100000627;2499
693;2.3224963000011485;2500
694;2.3254566000014165;2501
695;2.3283613000003243;2501
696;2.3318988000009995;2502
697;2.3357734000001074;2503
698;2.338769100000718;2504
699;2.3417268000011973;2505
700;2.3456198000003496;2506
701;2.348674900000333;2506
702;2.3516374999999243;2507
703;2.3547347000003356;2508
704;2.357718900000691;2509
705;2.360698800001046;2509
706;2.3635814000008395;2510
707;2.3666060000014113;2511
708;2.3695935000014288;2512
709;2.3725841000014043;2513
710;2.3755780999999843;2513
711;2.3787286000006134;2514
712;2.3817207000010967;2515
713;2.3847294000006514;2515
714;2.38772550000067;2516
715;2.3907185000007303;2516
716;2.3937275000007503;2517
717;2.396707600000809;2518
718;2.3992451000012807;2519
