;time;amplitude
0;0.0046523000000888715;2415
1;0.009679299999334035;2415
2;0.014667400000689668;2415
3;0.019267400000899215;2416
4;0.02320990000043821;2417
5;0.027498100000229897;2417
6;0.030939899999793852;2417
7;0.0345859000008204;2417
8;0.03769119999924442;2418
9;0.04068100000040431;2418
10;0.04381850000027043;2419
11;0.048250399999233196;2419
12;0.05222470000080648;2419
13;0.056210599999758415;2419
14;0.06022630000006757;2420
15;0.06424329999936162;2420
16;0.06701959999918472;2420
17;0.07089040000028035;2420
18;0.07492590000038035;2420
19;0.07771169999978156;2421
20;0.08079539999926055;2421
21;0.08372790000066743;2421
22;0.0867314000006445;2422
23;0.08973639999931038;2422
24;0.09272799999962444;2421
25;0.09573880000061763;2422
26;0.09870469999987108;2422
27;0.10149040000032983;2422
28;0.10462240000015299;2422
29;0.10762740000063786;2423
30;0.110950899999807;2423
31;0.11407250000047497;2423
32;0.11798310000085621;2423
33;0.12198940000052971;2424
34;0.12597850000020117;2424
35;0.13000429999920016;2425
36;0.13296099999934086;2426
37;0.13679290000072797;2426
38;0.1397845999999845;2427
39;0.1427715999998327;2427
40;0.14575409999997646;2428
41;0.14875869999923452;2428
42;0.15176860000065062;2429
43;0.1547497999999905;2429
44;0.1577584000006027;2430
45;0.16067169999951147;2430
46;0.16374800000085088;2431
47;0.1667512000003626;2431
48;0.16975099999945087;2431
49;0.17276069999934407;2433
50;0.17579060000025493;2433
51;0.17876109999997425;2434
52;0.1817546999991464;2434
53;0.1845854999992298;2434
54;0.1876594000004843;2435
55;0.19062139999914507;2435
56;0.1936280000008992;2435
57;0.1967566999992414;2435
58;0.19987760000003618;2436
59;0.20400270000027376;2436
60;0.20794030000070052;2436
61;0.2118534000001091;2437
62;0.2148589999997057;2437
63;0.21755259999918053;2438
64;0.21954990000085672;2438
65;0.22253540000019711;2438
66;0.2245058999997127;2438
67;0.22645069999998668;2438
68;0.22905290000016976;2438
69;0.23313039999993634;2438
70;0.23709400000007008;2439
71;0.23981930000081775;2440
72;0.24279089999981807;2440
73;0.24607629999991332;2440
74;0.24988139999913983;2440
75;0.25287290000051144;2441
76;0.25587090000044554;2441
77;0.2588734000000841;2442
78;0.26290139999946405;2442
79;0.2658680999993521;2443
80;0.26886390000072424;2443
81;0.27186970000002475;2443
82;0.27487420000034035;2443
83;0.27759379999952216;2444
84;0.28080989999943995;2444
85;0.2838112999997975;2444
86;0.28681870000036724;2444
87;0.2898430000004737;2445
88;0.29284630000074685;2445
89;0.29584539999996196;2445
90;0.29883979999976873;2445
91;0.301854800000001;2445
92;0.3048419999995531;2445
93;0.30783750000045984;2446
94;0.3105993999997736;2445
95;0.3138466000000335;2446
96;0.316567899999427;2446
97;0.3198152000004484;2446
98;0.32263790000070003;2446
99;0.3256588999993255;2447
100;0.3291919000002963;2447
101;0.332680800000162;2447
102;0.3355226000003313;2447
103;0.3376234999996086;2448
104;0.3410514000006515;2447
105;0.3446084000006522;2448
106;0.34789679999994405;2448
107;0.350866999999198;2448
108;0.3538611999993009;2449
109;0.35689989999991667;2449
110;0.359903900000063;2449
111;0.36270189999959257;2449
112;0.36581289999958244;2449
113;0.3688158000004478;2450
114;0.3718148000007204;2450
115;0.3750013000008039;2450
116;0.3789011000008031;2450
117;0.38316929999928107;2450
118;0.3871689999996306;2450
119;0.3911480999995547;2450
120;0.3948959000008472;2450
121;0.39958739999929094;2450
122;0.4045846999997593;2450
123;0.40959579999980633;2450
124;0.4145795000004;2450
125;0.4195653000006132;2450
126;0.4245731999999407;2450
127;0.42790210000021034;2449
128;0.4307862000005116;2450
129;0.435322699999233;2450
130;0.43925990000025195;2450
131;0.4432219999998779;2449
132;0.4472038000003522;2449
133;0.4512150999998994;2449
134;0.45526950000021316;2449
135;0.45901120000053197;2449
136;0.46329080000032263;2448
137;0.4671815000001516;2449
138;0.47120109999923443;2448
139;0.4747423000007984;2448
140;0.4776421999995364;2448
141;0.4811320999997406;2447
142;0.48515690000022005;2447
143;0.48885080000036396;2446
144;0.4932516000008036;2446
145;0.4958748999997624;2446
146;0.500251900000876;2446
147;0.5041084999993473;2445
148;0.5081590000008873;2445
149;0.5117071999993641;2444
150;0.5151334999991377;2444
151;0.5191756999993231;2444
152;0.5216003999994427;2444
153;0.5234555999995791;2444
154;0.5256090999992011;2444
155;0.5286133999998128;2443
156;0.5322625999997399;2443
157;0.5360462999997253;2443
158;0.5400922000007995;2442
159;0.544135300000562;2442
160;0.5481163000004017;2442
161;0.5516215000006923;2442
162;0.5550569000006362;2441
163;0.5591236000000208;2441
164;0.5631109999994806;2441
165;0.5671056999999564;2441
166;0.5709294000007503;2441
167;0.5751283000008698;2440
168;0.5790959000005387;2440
169;0.5828619000003528;2440
170;0.5859268999993219;2440
171;0.5888955000009446;2439
172;0.5918684999996913;2439
173;0.5946514000006573;2439
174;0.598016899999493;2438
175;0.6021457000006194;2438
176;0.6061281000002054;2437
177;0.6101636000003055;2437
178;0.614549399999305;2436
179;0.6196674999991956;2436
180;0.6246573000007629;2434
181;0.6290229000005638;2434
182;0.6327999000004638;2433
183;0.6370009999991453;2433
184;0.6413202000003366;2432
185;0.6448405999999522;2431
186;0.6476681000003737;2431
187;0.6506196000009368;2430
188;0.6534905000007711;2430
189;0.6554887000002054;2429
190;0.6574643000003562;2429
191;0.6594844999999623;2429
192;0.6615053000004991;2428
193;0.6645902000000206;2428
194;0.6665064000007987;2428
195;0.6684492000003956;2428
196;0.6704785000001721;2427
197;0.6737997000000178;2427
198;0.6768274000005476;2427
199;0.6798376000006101;2426
200;0.6828490999996575;2426
201;0.685688300000038;2426
202;0.6886828999995487;2425
203;0.691679400000794;2425
204;0.6944896000004519;2425
205;0.6976171999995131;2425
206;0.7012568999998621;2424
207;0.7051030000002356;2424
208;0.7087379999993573;2424
209;0.7131626999998844;2423
210;0.717108200000439;2423
211;0.7211069999993924;2422
212;0.7246563000007882;2422
213;0.7275743999998667;2422
214;0.7309043999994174;2421
215;0.7338758000005328;2421
216;0.7368580999991536;2421
217;0.7398443000001862;2420
218;0.742476199999146;2419
219;0.7454539999998815;2419
220;0.7474211000007926;2419
221;0.7495022999992216;2418
222;0.7515282000003936;2418
223;0.7535375999996177;2417
224;0.7565587000008236;2417
225;0.7585455999997066;2417
226;0.761583999999857;2417
227;0.7644768000009208;2417
228;0.7676236000006611;2416
229;0.7712769999998272;2416
230;0.7753181999996741;2415
231;0.7790347000009206;2415
232;0.7836375999995653;2415
233;0.7883763000008912;2414
234;0.792301999999836;2414
235;0.7960015000007843;2414
236;0.8003332000007504;2413
237;0.8038032000004023;2413
238;0.807165399999576;2412
239;0.8108940999991319;2412
240;0.8153538999995362;2411
241;0.8189731000002212;2411
242;0.8233151000004;2411
243;0.8271027999999205;2411
244;0.8312781000004179;2410
245;0.8352049999994051;2409
246;0.8393670000004931;2409
247;0.8433368999994855;2409
248;0.8473047999996197;2408
249;0.8507528000009188;2408
250;0.855049699999654;2408
251;0.8580111999999644;2408
252;0.8606801999994786;2408
253;0.8639351000001625;2407
254;0.8669248000005609;2407
255;0.8699379000008776;2407
256;0.8728045000007114;2407
257;0.8759468999996898;2407
258;0.8789644000007684;2407
259;0.8829487999992125;2407
260;0.8859621999999945;2407
261;0.889945799999623;2407
262;0.8929554999995162;2407
263;0.8959503000005498;2407
264;0.8989443000009487;2406
265;0.9019449000006716;2406
266;0.9049462000002677;2406
267;0.908972499999436;2406
268;0.9118166999996902;2406
269;0.9149493999993865;2406
270;0.917945499999405;2406
271;0.9209439000005659;2406
272;0.9239594999999099;2406
273;0.9269196999994165;2406
274;0.9299470000005385;2406
275;0.9329453999998805;2406
276;0.9369196999996348;2406
277;0.9399420000008831;2406
278;0.9439087999999174;2406
279;0.9467499000002135;2406
280;0.9497315000007802;2406
281;0.9540978000004543;2406
282;0.9568072000001848;2407
283;0.9607378000000608;2407
284;0.9636721999995643;2407
285;0.9669424999992771;2407
286;0.969946200000777;2407
287;0.9729626000007556;2407
288;0.9758302999998705;2407
289;0.9789576999992278;2408
290;0.9819444000004296;2408
291;0.9849472000005335;2408
292;0.9878126000003249;2408
293;0.9908942000001844;2408
294;0.9938299999994342;2408
295;0.9979450999999244;2409
296;1.0009456999996473;2409
297;1.0049424000008003;2409
298;1.0079413000003115;2409
299;1.0119644000005792;2409
300;1.0159807;2410
301;1.0199527999993734;2410
302;1.0226593999996112;2410
303;1.0259473000005528;2411
304;1.0289412999991328;2411
305;1.0319502999991528;2411
306;1.0359427000003052;2411
307;1.0397704999995767;2411
308;1.042821000000913;2412
309;1.0459554999997636;2412
310;1.0489417999997386;2413
311;1.0519683999991685;2413
312;1.0549573000007513;2414
313;1.0589825000006385;2414
314;1.062983300000269;2414
315;1.0669667000001937;2414
316;1.0697913999993034;2415
317;1.072799199999281;2415
318;1.0759730000008858;2415
319;1.078981799999383;2415
320;1.0819706000002043;2415
321;1.084947800000009;2416
322;1.0878360000006069;2416
323;1.0919840999995358;2416
324;1.0959786999992502;2416
325;1.099972300000445;2417
326;1.1029710000002524;2417
327;1.1058389999998326;2417
328;1.1098760999993829;2418
329;1.1129870999993727;2418
330;1.1167282000005798;2418
331;1.1199634000004153;2419
332;1.1239824999993289;2419
333;1.12697610000032;2419
334;1.1299779000000854;2419
335;1.132784499999616;2419
336;1.1359857999996166;2420
337;1.1399839000005159;2420
338;1.1438297999993665;2421
339;1.1469660000002477;2421
340;1.1499748000005638;2421
341;1.1529950999993162;2422
342;1.155979799999841;2422
343;1.1599748000007821;2423
344;1.162978500000463;2423
345;1.1659782999995514;2424
346;1.1699669000008726;2424
347;1.1729711999996653;2425
348;1.17596340000091;2425
349;1.1790261999994982;2425
350;1.1817940000000817;2426
351;1.1847507999991649;2426
352;1.188988399999289;2426
353;1.192997899999682;2426
354;1.1958082000001014;2427
355;1.1989885999992111;2427
356;1.2029736999993474;2427
357;1.2059730000000854;2428
358;1.2099782999994204;2428
359;1.2129855999992287;2428
360;1.2169758000000002;2429
361;1.2199822000002314;2429
362;1.2239702000006218;2429
363;1.226767899999686;2429
364;1.2299851000007038;2430
365;1.2329668999991554;2430
366;1.2368523999994068;2431
367;1.2399731000004977;2431
368;1.2428318000002037;2432
369;1.245989200000622;2432
370;1.2499778000001243;2432
371;1.2529642000008607;2433
372;1.2559667999994417;2433
373;1.2589681999997993;2434
374;1.2618301000002248;2434
375;1.2649658999998792;2435
376;1.26799580000079;2435
377;1.2719734000002063;2436
378;1.2749703999998019;2437
379;1.2776866000003793;2437
380;1.2809873999995034;2438
381;1.284977400000571;2438
382;1.2879661999995733;2438
383;1.2917565000007016;2439
384;1.2947578000002977;2439
385;1.2979801000001316;2440
386;1.3009973999996873;2440
387;1.304940500000157;2441
388;1.3079871999998431;2441
389;1.310716500000126;2441
390;1.3139695000008942;2441
391;1.3179791999991721;2442
392;1.3207597000000533;2442
393;1.3239754999995057;2442
394;1.3268403000001854;2443
395;1.3299759000001359;2443
396;1.3329813000000286;2443
397;1.3360271000001376;2443
398;1.339985099999467;2443
399;1.342971199999738;2444
400;1.3459837999998854;2444
401;1.3489642000004096;2444
402;1.3518571999993583;2444
403;1.3549700999992638;2445
404;1.3577045000001817;2445
405;1.360609100000147;2446
406;1.3652423000003182;2446
407;1.369216700000834;2446
408;1.3730988999996043;2447
409;1.377173999999286;2447
410;1.381151999999929;2447
411;1.3851216999992175;2447
412;1.3891385999995691;2447
413;1.3931327000009333;2447
414;1.3961194999992586;2448
415;1.3995813000001363;2448
416;1.4023933999997098;2448
417;1.405629000000772;2448
418;1.4086375000006228;2449
419;1.4122060999998212;2449
420;1.4162393999995402;2449
421;1.4201081999999587;2449
422;1.4241275999993377;2449
423;1.4276860999998462;2449
424;1.431093499999406;2449
425;1.435134699999253;2450
426;1.4391286999998556;2450
427;1.4431165999994846;2450
428;1.44671340000059;2450
429;1.4497465000004013;2450
430;1.4524454000002152;2450
431;1.4546291000006022;2450
432;1.4576178999996046;2450
433;1.4607568999999785;2450
434;1.4640467999997782;2450
435;1.467860999999175;2450
436;1.4707956000002014;2450
437;1.4738352000003943;2450
438;1.4769264000005933;2450
439;1.4795475999999326;2450
440;1.482745100000102;2450
441;1.4857547999999952;2450
442;1.4887696000005235;2450
443;1.4920304999996006;2450
444;1.4960578999998688;2450
445;1.5004817999997613;2450
446;1.5055030000003171;2450
447;1.5099200000004203;2449
448;1.5139424999997573;2449
449;1.5182143000001815;2449
450;1.5222376000001532;2448
451;1.5261969999992289;2449
452;1.528835799999797;2448
453;1.532008100000894;2448
454;1.5348183999994944;2448
455;1.5378614000001107;2448
456;1.5418762000008428;2447
457;1.5447105999992345;2447
458;1.5478772000005847;2447
459;1.550841500000388;2447
460;1.5538746000001993;2447
461;1.55667639999956;2446
462;1.559767799999463;2446
463;1.5628658999994514;2446
464;1.5658390000007785;2445
465;1.568889300000592;2445
466;1.5717256999996607;2445
467;1.5748647000000346;2445
468;1.577726999999868;2445
469;1.5808801999992284;2445
470;1.5838440999996237;2445
471;1.5870099999992817;2444
472;1.5911613999996916;2444
473;1.5951600000007602;2444
474;1.5991467000003468;2444
475;1.6029665999994904;2443
476;1.6059179000003496;2443
477;1.6087884999997186;2442
478;1.6117247000001953;2442
479;1.6152495000005729;2442
480;1.619030699999712;2442
481;1.6215816999992967;2442
482;1.624609300000884;2441
483;1.6274503000004188;2441
484;1.629611099999238;2441
485;1.6315881999998965;2440
486;1.6344594999991386;2440
487;1.6366591999994853;2440
488;1.6396676000003936;2440
489;1.6433381000006193;2440
490;1.6472004999995988;2439
491;1.6506907999992109;2439
492;1.6540700999994442;2438
493;1.6581231000000116;2438
494;1.6621149000002333;2438
495;1.6659428999992087;2437
496;1.6701787000001787;2437
497;1.6741469999997207;2436
498;1.6777180999997654;2435
499;1.6810120999998617;2435
500;1.6851958999995986;2435
501;1.689112500000192;2434
502;1.6931691999998293;2434
503;1.6961200999994617;2434
504;1.698744600000282;2433
505;1.7020926999994117;2433
506;1.7059420999994472;2432
507;1.708900600000561;2432
508;1.7119450999998662;2431
509;1.7148502000000008;2431
510;1.717858800000613;2431
511;1.7206623000001855;2430
512;1.7226721999995789;2430
513;1.72564439999951;2430
514;1.729028699999617;2430
515;1.7331754000006185;2428
516;1.7368652999994083;2428
517;1.7416534000003594;2428
518;1.7461535000002186;2427
519;1.750368900000467;2426
520;1.755505200000698;2425
521;1.7605987999995705;2425
522;1.7639773999999306;2424
523;1.7669774999994843;2424
524;1.7700311000007787;2424
525;1.774002300000575;2423
526;1.777748700000302;2423
527;1.7807307000002766;2423
528;1.7837099999997008;2422
529;1.7866345999991609;2422
530;1.7896077999994304;2421
531;1.7926869000002625;2421
532;1.795662500000617;2421
533;1.7986510999999155;2420
534;1.802211800000805;2420
535;1.8061087999994925;2419
536;1.808577100000548;2419
537;1.8104872000003525;2419
538;1.812619000000268;2419
539;1.8146202000007179;2418
540;1.8176392000004853;2418
541;1.8212640000001556;2417
542;1.825242700000672;2417
543;1.8291384000003745;2416
544;1.8331648000003042;2416
545;1.8371428000009473;2415
546;1.8408099000007496;2415
547;1.8435499999995955;2414
548;1.8468651000002865;2414
549;1.8498104000009334;2413
550;1.8526275999993231;2413
551;1.8544727999997122;2412
552;1.85661059999984;2412
553;1.8596522000007099;2412
554;1.862059600000066;2412
555;1.86499829999957;2411
556;1.8679596000001766;2411
557;1.870935400000235;2411
558;1.8739267000000837;2410
559;1.8770425000002433;2410
560;1.8798650999997335;2410
561;1.8828711999994994;2410
562;1.885567400000582;2410
563;1.888702000000194;2410
564;1.891684800000803;2409
565;1.894670400000905;2409
566;1.8983109000000695;2409
567;1.90203400000064;2409
568;1.906142699999691;2409
569;1.9102476999996725;2408
570;1.9131123999995907;2408
571;1.9171722999999474;2408
572;1.9201408000008087;2408
573;1.9241493000008631;2407
574;1.9277270000002318;2407
575;1.931098999999449;2407
576;1.9351600999998482;2407
577;1.9391587000009167;2407
578;1.943213200000173;2407
579;1.9458496000006562;2406
580;1.948826800000461;2406
581;1.9514034999992873;2406
582;1.9538924000007682;2405
583;1.9570139000006748;2405
584;1.961100799999258;2405
585;1.96526300000005;2405
586;1.9694522999998298;2405
587;1.9747275000008813;2405
588;1.9805422999997973;2406
589;1.9856794999996055;2406
590;1.990710100000797;2406
591;1.9951584999998886;2406
592;1.9995082000004913;2406
593;2.0044749999997293;2406
594;2.008480700000291;2406
595;2.011793300000136;2407
596;2.016489999999976;2407
597;2.020477399999436;2407
598;2.0244863999996596;2408
599;2.0278498999996373;2408
600;2.031279500000892;2408
601;2.035486000000674;2408
602;2.0393812999991496;2409
603;2.043554600000789;2409
604;2.0467320999996446;2409
605;2.0497904999992898;2409
606;2.053182600000582;2409
607;2.0572924000007333;2409
608;2.060747600000468;2409
609;2.064778199999637;2409
610;2.068209200000638;2410
611;2.072229100000186;2410
612;2.0762087000002794;2410
613;2.078889000000345;2410
614;2.0821813000002294;2410
615;2.0862293999998656;2411
616;2.0902315000003;2411
617;2.093780600000173;2411
618;2.0971774000008736;2412
619;2.101274700000431;2412
620;2.1052184000000125;2411
621;2.108018799999627;2412
622;2.1121526999995694;2412
623;2.1162390999998024;2412
624;2.120159300000523;2413
625;2.1242748000004212;2413
626;2.1277164999992237;2413
627;2.1311846999997215;2414
628;2.1352411000007123;2414
629;2.1392044000003807;2415
630;2.1432002000001376;2415
631;2.1472463000009157;2415
632;2.151216599999316;2416
633;2.1552045999997063;2416
634;2.1591989000007743;2416
635;2.1621807999999874;2416
636;2.1662601999996696;2416
637;2.1696561999997357;2417
638;2.172523799999908;2417
639;2.1746903999992355;2418
640;2.177536600000167;2418
641;2.181205400000181;2418
642;2.184712000000218;2419
643;2.188086899999689;2419
644;2.190926600000239;2420
645;2.1936688000005233;2420
646;2.1969203000007838;2421
647;2.1999324999997043;2421
648;2.20287880000069;2421
649;2.2059341999993194;2422
650;2.208926999999676;2422
651;2.2119158999994397;2422
652;2.21492120000039;2423
653;2.2177021999996214;2423
654;2.221042600000146;2423
655;2.2252100000005157;2424
656;2.2291719000004377;2425
657;2.2331028999997216;2425
658;2.237542200000462;2426
659;2.241166899999371;2426
660;2.2452069999999367;2427
661;2.249550200000158;2427
662;2.2531586999994033;2427
663;2.257317300000068;2428
664;2.2607979999993404;2428
665;2.265258999999787;2428
666;2.2691792999994504;2429
667;2.273242499999469;2429
668;2.277148600000146;2429
669;2.2811141000001953;2430
670;2.2837932000002183;2430
671;2.286937900000339;2431
672;2.289884499999971;2431
673;2.2928948999997374;2431
674;2.2959418000009464;2432
675;2.2989080999996077;2432
676;2.3018974000005983;2432
677;2.3048711999999796;2433
678;2.3078834999996616;2433
679;2.3106855000005453;2433
680;2.3139138000005914;2434
681;2.316925999999512;2434
682;2.319877699999779;2435
683;2.3229408000006515;2435
684;2.3258745999992243;2436
685;2.328891499999372;2436
686;2.331917900000917;2436
687;2.3348936999991565;2437
688;2.338915199999974;2437
689;2.3419140000005427;2438
690;2.3448884000008547;2438
691;2.34794200000033;2439
692;2.350921200000812;2439
693;2.3538907000001927;2439
694;2.357694000000265;2439
695;2.3607962999994925;2440
696;2.3640195000007225;2440
697;2.36685050000051;2441
698;2.3700062000007165;2441
699;2.3729949000007764;2441
700;2.3768722000004345;2442
701;2.3800191999998788;2442
702;2.3828764999998384;2443
703;2.386043599999539;2443
704;2.3887654000009206;2443
705;2.3916606999991927;2444
706;2.393635500000528;2444
707;2.396715299999414;2444
708;2.4002837000007275;2444
709;2.404394200000752;2445
710;2.4081229000003077;2445
711;2.412175900000875;2446
712;2.4161960000001272;2446
713;2.4199492000007012;2446
714;2.4241951999993034;2447
715;2.4277060000003985;2447
716;2.4322006999991572;2447
717;2.43607350000093;2448
718;2.439103700000487;2448
719;2.442086000000927;2447
