;time;amplitude
0;0.0029334999999264255;2511
1;0.005919799999901443;2510
2;0.008981699998912518;2510
3;0.011927100000320934;2510
4;0.014867300000332762;2510
5;0.01785589999963122;2509
6;0.020879699999568402;2509
7;0.023740499998893938;2509
8;0.02683230000002368;2509
9;0.029993699999977252;2508
10;0.0327036999988195;2508
11;0.03464759999951639;2508
12;0.03660219999983383;2508
13;0.038647499999569845;2507
14;0.04076650000024529;2507
15;0.04375710000022082;2506
16;0.04679450000003271;2506
17;0.04991859999972803;2505
18;0.05290959999911138;2505
19;0.05588109999916924;2504
20;0.058999900000344496;2504
21;0.06188130000009551;2504
22;0.06491529999948398;2503
23;0.06788299999971059;2502
24;0.07090810000045167;2502
25;0.07397619999937888;2501
26;0.0769094999996014;2501
27;0.0799155000004248;2500
28;0.0828734999995504;2500
29;0.08584289999998873;2499
30;0.08898719999888272;2499
31;0.091962099999364;2498
32;0.09488190000047325;2498
33;0.09772279999924649;2497
34;0.09975610000037705;2496
35;0.10174480000023323;2496
36;0.10374430000047141;2496
37;0.10575500000049942;2496
38;0.10872369999924558;2495
39;0.11176309999973455;2495
40;0.11377259999972011;2494
41;0.11582689999886497;2494
42;0.11873089999971853;2493
43;0.12074369999936607;2493
44;0.12274859999888577;2492
45;0.12474350000047707;2492
46;0.12675250000029337;2491
47;0.1287479999991774;2491
48;0.13074679999954242;2490
49;0.13274879999880795;2489
50;0.13476509999964037;2489
51;0.13678319999962696;2488
52;0.13980459999947925;2488
53;0.1430796000004193;2486
54;0.1460757000004378;2486
55;0.14906820000032894;2485
56;0.15205629999945813;2483
57;0.15472240000053716;2482
58;0.15772300000026007;2481
59;0.1610244999992574;2480
60;0.16402819999893836;2479
61;0.1670300000005227;2478
62;0.1700645999990229;2477
63;0.1730623999992531;2477
64;0.17591840000022785;2476
65;0.17894019999948796;2475
66;0.18191870000009658;2473
67;0.1849432999988494;2472
68;0.18791039999996428;2472
69;0.19074449999970966;2471
70;0.19403719999900204;2471
71;0.1970283999999083;2470
72;0.1997188000004826;2469
73;0.20302189999893017;2469
74;0.20600779999949737;2468
75;0.2090133000001515;2467
76;0.21201490000021295;2466
77;0.21496920000026876;2466
78;0.21802089999982854;2465
79;0.22101939999993192;2463
80;0.2238281999998435;2463
81;0.2267826999996032;2463
82;0.230009599999903;2462
83;0.23303089999899385;2461
84;0.2360181999993074;2460
85;0.23901159999877564;2459
86;0.24201869999888004;2458
87;0.24502290000054927;2457
88;0.2477987000002031;2456
89;0.24961339999936172;2456
90;0.25179799999932584;2455
91;0.25369659999887517;2455
92;0.2568317000004754;2454
93;0.2587963999994827;2453
94;0.26072779999958584;2452
95;0.26379719999931694;2452
96;0.26570080000055896;2451
97;0.2688209999996616;2450
98;0.27075370000056864;2450
99;0.2726941999990231;2449
100;0.27582599999914237;2449
101;0.27867329999935464;2448
102;0.28179090000048745;2448
103;0.28481449999890174;2447
104;0.2867975999997725;2447
105;0.2886975999990682;2446
106;0.2917959000005794;2446
107;0.2936448999989807;2446
108;0.2957511999993585;2446
109;0.29877529999976105;2445
110;0.30178410000007716;2444
111;0.30368970000017725;2443
112;0.3058173999997962;2443
113;0.308781399999134;2443
114;0.3108027999987826;2442
115;0.3137898999993922;2441
116;0.31678759999886097;2441
117;0.3187761999997747;2440
118;0.3207001999999193;2439
119;0.32373740000002726;2439
120;0.3256325000002107;2438
121;0.3277422999999544;2438
122;0.3307927000005293;2438
123;0.33380749999923864;2437
124;0.3374445999997988;2436
125;0.3409393000001728;2434
126;0.3443201999998564;2433
127;0.3483271999994031;2432
128;0.3523609999992914;2431
129;0.3564122999996471;2430
130;0.35877309999887075;2428
131;0.3606763999996474;2428
132;0.3628241000005801;2427
133;0.3656670000000304;2426
134;0.3688105999990512;2425
135;0.37174249999952735;2425
136;0.3736279000004288;2424
137;0.3758051999993768;2423
138;0.37771059999977297;2423
139;0.38081210000018473;2422
140;0.38273230000049807;2422
141;0.38577819999954954;2421
142;0.3888793000005535;2420
143;0.3918976000004477;2418
144;0.39522329999999783;2418
145;0.3991294999996171;2417
146;0.4021028999995906;2416
147;0.4051025999997364;2415
148;0.40786259999913455;2414
149;0.41103389999989304;2413
150;0.41402609999931883;2412
151;0.4170250999995915;2412
152;0.4200698000004195;2411
153;0.42305800000031013;2410
154;0.4260988999994879;2410
155;0.42904989999988175;2409
156;0.43206259999897156;2408
157;0.4347187000003032;2407
158;0.43807620000006864;2407
159;0.4407037000000855;2406
160;0.44408909999947355;2405
161;0.44703999999910593;2404
162;0.450017499999376;2403
163;0.4530264000004536;2402
164;0.4560574999995879;2401
165;0.4590542000005371;2400
166;0.46203830000013113;2399
167;0.4650342000004457;2399
168;0.46795530000053986;2398
169;0.47092309999970894;2397
170;0.4737905999991199;2396
171;0.47703829999954905;2395
172;0.4800195999996504;2394
173;0.4830144999996264;2393
174;0.4860229000005347;2392
175;0.4890181999999186;2392
176;0.4920440999994753;2391
177;0.49504589999924065;2390
178;0.4990476999992097;2388
179;0.502040899998974;2387
180;0.505017699999371;2386
181;0.5078605999988213;2385
182;0.5110170999996626;2384
183;0.5138030999987677;2383
184;0.5168188999996346;2383
185;0.5198416999992332;2382
186;0.5227825000001758;2382
187;0.5247896000000765;2381
188;0.5267617999998038;2380
189;0.5297575000004144;2380
190;0.5330871000005573;2379
191;0.5360641999996005;2378
192;0.5390761999988172;2377
193;0.542080299999725;2376
194;0.5447162999989814;2376
195;0.546765699999014;2376
196;0.5500854000001709;2375
197;0.5530496999999741;2374
198;0.5560549999991053;2374
199;0.5590914000003977;2373
200;0.5620665999995254;2372
201;0.5650537999990775;2372
202;0.5680166999991343;2371
203;0.5710407999995368;2371
204;0.5737066000001505;2370
205;0.5767452000000048;2369
206;0.5786625999990065;2369
207;0.5818240999997215;2368
208;0.5848002999991877;2367
209;0.5867121999999654;2367
210;0.5898122999988118;2367
211;0.5924138999998831;2366
212;0.5962988999999652;2365
213;0.6003595000001951;2364
214;0.6043747999992775;2363
215;0.6078204999994341;2362
216;0.6110381999988022;2362
217;0.6140262999997503;2361
218;0.6170246000001498;2360
219;0.6200752000004286;2359
220;0.6225596000003861;2359
221;0.6247261999997136;2358
222;0.6270824999992328;2358
223;0.6300577999991219;2358
224;0.6330476999992243;2357
225;0.6360783999989508;2356
226;0.6387832999989769;2356
227;0.6420789000003424;2355
228;0.6450707999993028;2354
229;0.6480933000002551;2353
230;0.6510732999995525;2353
231;0.6540898000002926;2352
232;0.6570085000003019;2351
233;0.6600409999991825;2351
234;0.6630671000002621;2351
235;0.6660510000001523;2350
236;0.6690582999999606;2350
237;0.6720363999993424;2350
238;0.6750544999995327;2349
239;0.6780433000003541;2349
240;0.6810437999993155;2348
241;0.6840348999994603;2348
242;0.6867889000004652;2348
243;0.6897470000003523;2347
244;0.6917997999989893;2347
245;0.6937433000002784;2347
246;0.6957208000003448;2347
247;0.6988146000003326;2346
248;0.701720999999452;2346
249;0.7036669999997684;2345
250;0.7056687000003876;2345
251;0.7076596999995672;2345
252;0.7097902999994403;2345
253;0.7128183000004356;2344
254;0.7158130999996501;2344
255;0.7178169999988313;2344
256;0.7208090999993146;2344
257;0.7227505999999266;2343
258;0.724823299999116;2343
259;0.7267955999996047;2343
260;0.7298281999992469;2343
261;0.7327724999995553;2342
262;0.7346773999997822;2341
263;0.7378212000003259;2341
264;0.7409506000003603;2340
265;0.7442431999988912;2340
266;0.7483572000001004;2339
267;0.7523431999998138;2339
268;0.756363099999362;2338
269;0.7593340000003082;2338
270;0.7631475999987742;2337
271;0.7663451999997051;2336
272;0.7701589999996941;2336
273;0.77314110000043;2335
274;0.7760617999992974;2335
275;0.7790473999993992;2334
276;0.7820560000000114;2334
277;0.7851093999997829;2333
278;0.7880740999989939;2333
279;0.7907618999997794;2333
280;0.7940741999991587;2332
281;0.7968309999996563;2332
282;0.8001757999991241;2332
283;0.8030903999988368;2332
284;0.8060758999999962;2331
285;0.8090635999997176;2331
286;0.8120765999992727;2331
287;0.8150740000000951;2331
288;0.8180412999990949;2331
289;0.8210409000002983;2331
290;0.8236132000001817;2331
291;0.8260415000004286;2331
292;0.8290527999997721;2331
293;0.8320450999999593;2330
294;0.8350430999998935;2331
295;0.8380691000002116;2330
296;0.8407485999996425;2330
297;0.8437647999999172;2330
298;0.8467946000000666;2330
299;0.8487707000003866;2330
300;0.850746899999649;2330
301;0.8541007000003447;2330
302;0.8569225999999617;2331
303;0.8600989999995363;2330
304;0.8630797999994684;2330
305;0.8661130999989837;2331
306;0.8690699999988283;2330
307;0.8720617999988463;2330
308;0.8747638999993796;2331
309;0.8780661999990116;2331
310;0.881047299999409;2330
311;0.8840726999987965;2330
312;0.8870310000002064;2330
313;0.8897139999990031;2330
314;0.8919060999996873;2330
315;0.894933100000344;2330
316;0.8979213000002346;2330
317;0.900903499999913;2330
318;0.9038927000001422;2329
319;0.9069982999990316;2330
320;0.9098131999999168;2330
321;0.9128478999991785;2330
322;0.9164037999998982;2330
323;0.9202084999997169;2330
324;0.9232203999999911;2330
325;0.9260771999997814;2330
326;0.9290994999992108;2330
327;0.9320755999997345;2331
328;0.9349339999989752;2331
329;0.9380806999997731;2331
330;0.94079789999887;2331
331;0.9440806999991764;2331
332;0.9470738999989408;2331
333;0.9500807000003988;2331
334;0.9527627999996184;2331
335;0.9560177999992447;2331
336;0.9590912999992725;2332
337;0.9620598000001337;2332
338;0.964898299998822;2332
339;0.9680177999998705;2332
340;0.9710378999989189;2332
341;0.9737561999991158;2333
342;0.9770599000003131;2333
343;0.9800388000003295;2333
344;0.9830471999994188;2333
345;0.9859493999992992;2333
346;0.9887495999992097;2334
347;0.9907628000000841;2334
348;0.9939596999993228;2334
349;0.9969581999994261;2334
350;0.9997291999989102;2334
351;1.002959199999168;2335
352;1.0059590999990178;2335
353;1.0089408999992884;2335
354;1.011957099999563;2335
355;1.014930800000002;2335
356;1.0177280999996583;2335
357;1.0209675000005518;2335
358;1.0237833999999566;2335
359;1.0269360000002052;2336
360;1.0299654999998893;2336
361;1.0329621999990195;2336
362;1.035958299999038;2337
363;1.0389605999989726;2337
364;1.0419574999996257;2337
365;1.0449490999999398;2338
366;1.0479630999998335;2338
367;1.0509621999990486;2338
368;1.0539460999989387;2338
369;1.0569178000005195;2339
370;1.0599549999988085;2340
371;1.0627446999988024;2340
372;1.0659627999993972;2340
373;1.0689669999992475;2341
374;1.0719508000001952;2342
375;1.0749675999995816;2342
376;1.0779397999995126;2342
377;1.0809465999991517;2342
378;1.0839608000005683;2343
379;1.0869611999987683;2344
380;1.0899369999988266;2344
381;1.0929519000001164;2344
382;1.095958599998994;2345
383;1.0989620000000286;2345
384;1.101959600000555;2345
385;1.104942599999049;2346
386;1.1079664999997476;2346
387;1.1109550000001036;2346
388;1.1139695000001666;2347
389;1.1169666000005236;2348
390;1.1199508999998216;2348
391;1.1229638999993767;2349
392;1.1257951999996294;2349
393;1.129211999999825;2349
394;1.1334066999988863;2349
395;1.1374243999998725;2350
396;1.1413706999992428;2350
397;1.1454226999994717;2351
398;1.149423900000329;2351
399;1.153366399999868;2352
400;1.1575381999991805;2352
401;1.161514100000204;2353
402;1.165503099999114;2353
403;1.1694793999995454;2354
404;1.1730251999997563;2354
405;1.1764836000002106;2355
406;1.1805294000005233;2356
407;1.1844915999990917;2356
408;1.188818299999184;2357
409;1.1921389999988605;2357
410;1.1953152999994927;2358
411;1.1995602999995754;2359
412;1.2035632999995869;2360
413;1.2072434999990946;2361
414;1.211538899999141;2361
415;1.2155076999988523;2362
416;1.219467099999747;2363
417;1.2236092000002827;2364
418;1.2274930999992648;2365
419;1.231507700000293;2366
420;1.2354682000004686;2367
421;1.2389244999994844;2368
422;1.2419585999996343;2368
423;1.2465111999990768;2369
424;1.2504890999989584;2370
425;1.2543315000002622;2371
426;1.2569767999993928;2372
427;1.2615975999997318;2373
428;1.2653945999991265;2374
429;1.2695960000000923;2374
430;1.2736132999998517;2375
431;1.277491499999087;2376
432;1.281327799999417;2377
433;1.2839311999996426;2378
434;1.2885852999988856;2379
435;1.2924058999997214;2380
436;1.2965910000002623;2381
437;1.3005843999999342;2382
438;1.3045807999988028;2382
439;1.3080627999988792;2384
440;1.312564800000473;2385
441;1.3165577999989182;2385
442;1.320573200000581;2387
443;1.3241366000002017;2388
444;1.3285904999993363;2389
445;1.3324609999999666;2390
446;1.3364863999995578;2391
447;1.340258799998992;2392
448;1.3432267999996839;2393
449;1.3470906999991712;2394
450;1.349829700000555;2394
451;1.3534761999999319;2395
452;1.357249700000466;2396
453;1.3599995000004128;2397
454;1.364539899999727;2397
455;1.368476699999519;2398
456;1.3723171000001457;2399
457;1.375106899999082;2401
458;1.3784737000005407;2401
459;1.382494299999962;2402
460;1.3865516999994725;2404
461;1.3905868999991071;2404
462;1.3945212999988144;2406
463;1.398496100000557;2407
464;1.4025232999993023;2408
465;1.4065498999989359;2409
466;1.4105605000004289;2409
467;1.4145680000001448;2410
468;1.4185433000002377;2412
469;1.4225851999999577;2413
470;1.4264941999990697;2414
471;1.4303030999999464;2415
472;1.433097799999814;2416
473;1.437596300000223;2417
474;1.4411636000004364;2418
475;1.4443300999992061;2419
476;1.4471101999988605;2419
477;1.450194900000497;2420
478;1.4532085999999254;2421
479;1.4559840000001714;2422
480;1.458964699999342;2423
481;1.4620125999990705;2423
482;1.4649423999999271;2424
483;1.4679892999993172;2425
484;1.4711766999989777;2425
485;1.4739755999999034;2426
486;1.4771866999999475;2427
487;1.4801819000003889;2428
488;1.4832033999991836;2429
489;1.4860662999999477;2429
490;1.4891843999994308;2430
491;1.4921787999992375;2431
492;1.4951920000003156;2431
493;1.4981835999988107;2432
494;1.5013101000004099;2433
495;1.5051779999994324;2433
496;1.5080383000004076;2435
497;1.5121828999999707;2436
498;1.5151788999992277;2437
499;1.5179755999997724;2437
500;1.5209489999997459;2438
501;1.5237016999999469;2439
502;1.525825700000496;2440
503;1.5288244000003033;2440
504;1.5320921999991697;2441
505;1.5350951999989775;2442
506;1.5381101000002673;2442
507;1.5408171999988554;2443
508;1.5440990999995847;2444
509;1.5470994999996037;2445
510;1.5497930999990785;2446
511;1.5519518000000971;2447
512;1.5551046000000497;2448
513;1.557959399999163;2449
514;1.5611123999988195;2450
515;1.5641034999989643;2450
516;1.5666770999996515;2451
517;1.5687184999987949;2452
518;1.5706054999991466;2453
519;1.572640299998966;2453
520;1.5758024999995541;2454
521;1.5777218000002904;2455
522;1.579938900000343;2455
523;1.582907799998793;2456
524;1.5859080999998696;2457
525;1.5889291999992565;2458
526;1.5919831999999587;2459
527;1.5949780999999348;2460
528;1.597974799999065;2461
529;1.6009761999994225;2462
530;1.6039805000000342;2463
531;1.6067946000002848;2464
532;1.6099761000004946;2465
533;1.612986300000557;2466
534;1.6159800000004907;2467
535;1.6189737000004243;2468
536;1.6219860999990487;2469
537;1.6249802000002092;2469
538;1.6276423999988765;2470
539;1.629707199999757;2471
540;1.6317865000000893;2472
541;1.6349565999989863;2472
542;1.6379508999998507;2473
543;1.6408028999994713;2474
544;1.6437991000002512;2475
545;1.6469885999995313;2476
546;1.6499867000002268;2477
547;1.6529888000004576;2478
548;1.6559999999990396;2479
549;1.6589834999995219;2480
550;1.6619570000002568;2480
551;1.6649660999992193;2481
552;1.6679578000002948;2482
553;1.6709759999994276;2483
554;1.6737390999987838;2483
555;1.6769946999993408;2484
556;1.6797944999998435;2484
557;1.6817806999988534;2484
558;1.6848381999989215;2485
559;1.6878378999990673;2485
560;1.6898204999997688;2486
561;1.6917708000000857;2486
562;1.6948370999998588;2487
563;1.6967757000002166;2488
564;1.699837000000116;2488
565;1.70184639999934;2489
566;1.70377709999957;2490
567;1.7066981999996642;2490
568;1.7088464999997086;2491
569;1.7108183999989706;2491
570;1.7127689999997529;2492
571;1.7158392000001186;2492
572;1.717776600000434;2493
573;1.7208455999989383;2493
574;1.7236732999990636;2494
575;1.72683490000054;2494
576;1.7304569999996602;2495
577;1.7344895000005636;2497
578;1.7382462000005034;2498
579;1.742357199998878;2499
580;1.746359400000074;2499
581;1.750362299999324;2501
582;1.7541160000000673;2502
583;1.7583020000001852;2502
584;1.7623354999996081;2504
585;1.7663548000000446;2505
586;1.769881099999111;2506
587;1.7732280000000173;2506
588;1.7763021999999182;2507
589;1.779115899998942;2508
590;1.7821246000003157;2508
591;1.7848912999997992;2509
592;1.78764240000055;2510
593;1.7898826999989979;2511
594;1.7927805999988777;2511
595;1.7947769999991579;2512
596;1.7967556000003242;2512
597;1.7987814999996772;2513
598;1.8018076999996993;2513
599;1.8048591999995551;2514
600;1.8079806999994616;2514
601;1.8109669000004942;2515
602;1.8139711000003444;2516
603;1.8167482999997446;2517
604;1.8200078999998368;2517
605;1.8229510000001028;2518
606;1.825982500000464;2518
607;1.828978300000017;2519
608;1.832018999999491;2520
609;1.834969600000477;2520
610;1.837974399999439;2521
611;1.8409809000004316;2522
612;1.843980499999816;2522
613;1.8469747999988613;2523
614;1.849674999999479;2524
615;1.8517035999993823;2524
616;1.8537053000000014;2524
617;1.8556952999988425;2525
618;1.8576804000003904;2525
619;1.8608647000000929;2525
620;1.862782000000152;2526
621;1.8648539000005258;2526
622;1.866783999999825;2526
623;1.8698695000002772;2527
624;1.8718491999989055;2527
625;1.8737053999993805;2527
626;1.8758624000001873;2527
627;1.8777807999995275;2527
628;1.880831999998918;2527
629;1.8827505999997811;2527
630;1.8858404999991762;2527
631;1.8888638999997056;2527
632;1.8906790999990335;2528
633;1.893866700000217;2528
634;1.896720799999457;2528
635;1.899672899999132;2529
636;1.9018276999995578;2529
637;1.9037528999997448;2529
638;1.9066736999993736;2529
639;1.9088429999992513;2529
640;1.9107077999997273;2529
641;1.9125712999993993;2529
642;1.9146921999999904;2529
643;1.9168439999994007;2529
644;1.9187464999995427;2529
645;1.9218344999990222;2529
646;1.9248630999991292;2529
647;1.9278278000001592;2529
648;1.9310795000001235;2529
649;1.93435479999971;2529
650;1.9381861999991088;2529
651;1.9424161999995704;2529
652;1.9450957999997627;2530
653;1.9480758999998216;2530
654;1.9510800999996718;2530
655;1.9540682999995624;2530
656;1.9567468999994162;2531
657;1.960096999999223;2531
658;1.963104200000089;2531
659;1.9661015000001498;2531
660;1.9691117000002123;2531
661;1.972097699999722;2531
662;1.975091299998894;2531
663;1.9780945999991673;2531
664;1.9810656999998173;2531
665;1.9841070000002219;2531
666;1.9870707999998558;2531
667;1.9900818999994954;2532
668;1.993070099999386;2532
669;1.9960670999989816;2532
670;1.9990614999987883;2533
671;2.002068199999485;2533
672;2.0048372999990534;2533
673;2.007754500000374;2533
674;2.0110611000000063;2532
675;2.014071600000534;2532
676;2.017065799998818;2532
677;2.020030699999552;2532
678;2.0230489000005036;2533
679;2.0260644999998476;2533
680;2.0290580000000773;2533
681;2.0320733999997174;2533
682;2.035067799999524;2534
683;2.039044899998771;2534
684;2.0420868000001065;2533
685;2.04507410000042;2534
686;2.048071600000185;2534
687;2.0510667999988073;2534
688;2.054068699999334;2533
689;2.056738999999652;2533
690;2.0600751000001765;2533
691;2.0630607999992208;2533
692;2.0660600999999588;2533
693;2.069072700000106;2533
694;2.072068199999194;2532
695;2.0750654000003124;2532
696;2.0780655999988085;2531
697;2.0810659999988275;2532
698;2.0839099999993778;2532
699;2.0870648000000074;2532
700;2.089954499999294;2532
701;2.0930828000000474;2531
702;2.0960796999988816;2531
703;2.099057699999321;2531
704;2.1020694999988336;2530
705;2.105070600000545;2530
706;2.108073899998999;2530
707;2.1110671000005823;2529
708;2.1140627000004315;2529
709;2.1167678000001615;2529
710;2.11984719999964;2528
711;2.1230794999992213;2528
712;2.1260640999989846;2528
713;2.1290623000004416;2528
714;2.132060800000545;2528
715;2.1350736000003963;2528
716;2.13807369999995;2527
