;time;amplitude
0;0.004435099999682279;2400
1;0.008321499999510706;2400
2;0.013167600000087987;2400
3;0.01733099999910337;2400
4;0.02165190000050643;2400
5;0.026899099999354803;2400
6;0.03186230000028445;2400
7;0.03688680000050226;2399
8;0.04126189999988128;2399
9;0.0456343999994715;2399
10;0.05048010000064096;2399
11;0.054506899999978486;2399
12;0.058576999999786494;2399
13;0.06248260000029404;2399
14;0.06648940000013681;2399
15;0.07046850000006089;2400
16;0.07426680000025954;2400
17;0.07846659999995609;2399
18;0.08240280000063649;2399
19;0.08650219999981346;2399
20;0.09003499999926134;2399
21;0.09350190000077419;2399
22;0.09747380000044359;2399
23;0.10150719999910507;2399
24;0.10550689999945462;2400
25;0.10906810000051337;2400
26;0.11191010000038659;2400
27;0.11650299999928393;2401
28;0.12042119999932765;2401
29;0.1242378999995708;2402
30;0.12847420000070997;2402
31;0.13242890000037733;2402
32;0.1364252999992459;2402
33;0.1400221000003512;2403
34;0.14348140000038256;2403
35;0.14749200000005658;2403
36;0.15150220000032277;2403
37;0.15547220000007655;2404
38;0.15953430000081426;2404
39;0.16455879999921308;2404
40;0.16848570000001928;2405
41;0.17181630000050063;2405
42;0.17496989999926882;2405
43;0.17793209999945248;2405
44;0.18249160000050324;2406
45;0.18649179999920307;2406
46;0.19006889999945997;2407
47;0.19456460000037623;2407
48;0.19957090000025346;2407
49;0.20351389999996172;2408
50;0.20707340000080876;2408
51;0.21149039999909292;2409
52;0.21540859999913664;2409
53;0.21784440000010363;2409
54;0.22082880000016303;2410
55;0.22448900000017602;2410
56;0.22832550000021;2411
57;0.232502700000623;2412
58;0.23649619999923743;2412
59;0.24005360000046494;2412
60;0.2445002000004024;2412
61;0.24832059999971534;2413
62;0.25190610000026936;2413
63;0.2549094000005425;2413
64;0.2584520000000339;2414
65;0.2624682000005123;2414
66;0.26645730000018375;2415
67;0.27150219999930414;2416
68;0.2754686000007496;2416
69;0.2793865999992704;2416
70;0.2835252999993827;2417
71;0.28749819999939064;2417
72;0.291519899999912;2417
73;0.29552370000055816;2418
74;0.2994388999995863;2418
75;0.30346169999938866;2419
76;0.30704340000011143;2420
77;0.3111563999991631;2420
78;0.31543989999954647;2421
79;0.3194739999999001;2422
80;0.32296820000010484;2423
81;0.32653319999917585;2423
82;0.32996749999983876;2424
83;0.3329412000002776;2424
84;0.3364373999993404;2425
85;0.33998109999993176;2425
86;0.3429563000008784;2425
87;0.34627720000025874;2426
88;0.35051129999919794;2426
89;0.3544887000007293;2427
90;0.358471899999131;2427
91;0.3624345000007452;2428
92;0.3664279999993596;2428
93;0.370483200000308;2429
94;0.3738355000004958;2429
95;0.37744410000050266;2430
96;0.3814851999995881;2430
97;0.3854862000007415;2431
98;0.3888839999999618;2432
99;0.39248939999924914;2432
100;0.396486300000106;2433
101;0.4003694999992149;2433
102;0.40453119999983755;2433
103;0.40844250000009197;2434
104;0.412453099999766;2434
105;0.4165111000002071;2435
106;0.4205106000008527;2436
107;0.4240334999994957;2436
108;0.4274483999997756;2437
109;0.43146209999940766;2438
110;0.4354612000006455;2438
111;0.4388961000004201;2439
112;0.44238749999931315;2440
113;0.4464728999992076;2440
114;0.4515006000001449;2442
115;0.4551136999998562;2442
116;0.45829869999943185;2442
117;0.46251350000056846;2442
118;0.4663808000004792;2443
119;0.4703828000001522;2444
120;0.4743326999996498;2444
121;0.478445599999759;2444
122;0.48240420000001905;2445
123;0.48652299999957904;2446
124;0.49004690000037954;2447
125;0.4935113999999885;2447
126;0.49738389999947685;2447
127;0.5011130000002595;2447
128;0.5055561999997735;2448
129;0.5094430000008288;2448
130;0.513417500000287;2448
131;0.5174659000003885;2448
132;0.521433199999592;2449
133;0.5254762999993545;2449
134;0.5294286999996984;2450
135;0.5335085999995499;2450
136;0.5374350999991293;2451
137;0.5414753999993991;2451
138;0.5454499999996187;2451
139;0.5479486000003817;2452
140;0.5507620000007591;2452
141;0.5539035999991029;2452
142;0.5568368999993254;2453
143;0.5598269000001892;2453
144;0.5627227000004495;2453
145;0.5646085000007588;2453
146;0.5666254000007029;2453
147;0.5688358000006701;2453
148;0.5717533999995794;2454
149;0.5747730000002775;2454
150;0.5765726000008726;2454
151;0.5787139000003663;2455
152;0.5816893999999593;2455
153;0.5837479999991046;2456
154;0.5857113000001846;2456
155;0.5878907000005711;2456
156;0.5907301000006555;2456
157;0.5927155999997922;2456
158;0.5946757000001526;2456
159;0.5966243000002578;2456
160;0.5986322000007931;2456
161;0.6006311000001006;2456
162;0.602675399999498;2456
163;0.6047178000007989;2456
164;0.6066885000000184;2456
165;0.6086598000001686;2456
166;0.6106820000004518;2456
167;0.6126850000000559;2456
168;0.6146795000004204;2456
169;0.6167155999992247;2456
170;0.6186885000006441;2456
171;0.6216748999995616;2457
172;0.624775000000227;2457
173;0.6277816000001621;2456
174;0.6307560999994166;2457
175;0.6327608999999939;2457
176;0.6347721999991336;2457
177;0.6377183999993576;2457
178;0.639630899999247;2457
179;0.6416644000000815;2457
180;0.6436732000001939;2456
181;0.6456868999994185;2457
182;0.6476117999991402;2457
183;0.6495403999997507;2457
184;0.6515369999997347;2456
185;0.6536376000003656;2456
186;0.6555828000000474;2456
187;0.6576430999994045;2456
188;0.6595949000002292;2456
189;0.6617189000007784;2456
190;0.6637386000002152;2456
191;0.6657111999993504;2456
192;0.6677318999991257;2456
193;0.6697241000001668;2456
194;0.6717382999995607;2456
195;0.6737589999993361;2456
196;0.6768671000008908;2457
197;0.6801512000001821;2457
198;0.6831774999991467;2457
199;0.6860324000008404;2456
200;0.6888457999993989;2456
201;0.6919130999995105;2456
202;0.6948974999995698;2456
203;0.6979085000002669;2456
204;0.7009431000005861;2455
205;0.7037115000002814;2455
206;0.7069276000001992;2455
207;0.709947800000009;2455
208;0.712927700000364;2455
209;0.7159338000001298;2455
210;0.7188965999994252;2455
211;0.721948300000804;2455
212;0.7248101000004681;2454
213;0.7279238999999507;2454
214;0.7309396000000561;2454
215;0.73394879999978;2454
216;0.7369233000008535;2454
217;0.7399308000003657;2454
218;0.7430461999992986;2454
219;0.7460367999992741;2453
220;0.7490397000001394;2454
221;0.7515872000003583;2453
222;0.7549140999999508;2453
223;0.758006199999727;2452
224;0.760990299999321;2453
225;0.7640066999992996;2453
226;0.7665240999995149;2452
227;0.769776200000706;2452
228;0.7719035999998596;2452
229;0.7748382999998285;2452
230;0.7778199999993376;2451
231;0.7808377000001201;2451
232;0.7838752999996359;2451
233;0.7868779000000359;2450
234;0.7898901000007754;2450
235;0.7928771999995661;2450
236;0.7958720999995421;2450
237;0.7988743999994767;2449
238;0.8018723000004684;2449
239;0.8048448000008648;2449
240;0.8078685000000405;2449
241;0.8108723000004829;2448
242;0.8136204000002181;2448
243;0.8157295000000886;2447
244;0.8188712999999552;2447
245;0.82181060000039;2447
246;0.8239042000004702;2447
247;0.8268785000000207;2447
248;0.8296298999994178;2447
249;0.8328720000008616;2446
250;0.8358711000000767;2446
251;0.8385438000004797;2445
252;0.8408435000001191;2445
253;0.8438459000008152;2444
254;0.8466241000005539;2444
255;0.8497509999997419;2444
256;0.8532267999999021;2444
257;0.8571905999997398;2444
258;0.8600755000006757;2443
259;0.863086100000146;2443
260;0.8660730999999942;2443
261;0.8690745999992942;2442
262;0.8719970999991347;2442
263;0.8749179999995249;2441
264;0.8776940999996441;2441
265;0.8795915999999124;2441
266;0.8817111999996996;2441
267;0.8836675999991712;2440
268;0.8856622999992396;2440
269;0.8876810999990994;2440
270;0.8896889999996347;2439
271;0.8917184000001726;2439
272;0.8937308000004123;2439
273;0.8957124000007752;2439
274;0.8977111000003788;2438
275;0.8997419999996055;2438
276;0.9017134000005171;2437
277;0.9037138000003324;2437
278;0.9055953999995836;2437
279;0.9088800000008632;2436
280;0.9122774999996182;2436
281;0.9162937000000966;2435
282;0.9202900000000227;2434
283;0.924171299999216;2434
284;0.9271379000001616;2433
285;0.9299264000001131;2433
286;0.9329147000007652;2433
287;0.935959799999182;2432
288;0.9387432000003173;2432
289;0.9419426000004023;2431
290;0.9448843999998644;2431
291;0.9479322999995929;2430
292;0.9510403999993287;2430
293;0.954033599999093;2429
294;0.9570156000008865;2429
295;0.9600188000003982;2428
296;0.9630558000008023;2428
297;0.966065399999934;2427
298;0.9690021999995224;2426
299;0.9718828999994003;2426
300;0.9750043000003643;2426
301;0.9780055999999604;2425
302;0.9810080999995989;2424
303;0.9840134000005492;2424
304;0.986657199999172;2424
305;0.9897605999994994;2424
306;0.9929671000008966;2423
307;0.996006600000328;2422
308;0.9990065000001778;2422
309;1.001797799999622;2422
310;1.0047095999998419;2422
311;1.0066523999994388;2421
312;1.008656300000439;2420
313;1.0106546000006347;2420
314;1.0130045000005339;2419
315;1.0159817000003386;2419
316;1.018941199999972;2419
317;1.0218053000007785;2418
318;1.025009000000864;2418
319;1.028009600000587;2418
320;1.0310040999993362;2417
321;1.033652500000244;2417
322;1.0370039000008546;2416
323;1.0400141999998596;2416
324;1.043001899999581;2416
325;1.0460124000001088;2415
326;1.049003800000719;2414
327;1.0516888000001927;2414
328;1.0536431000000448;2414
329;1.0557924999993702;2414
330;1.0590651000002254;2413
331;1.062051999999312;2413
332;1.0650817999994615;2412
333;1.068102799999906;2412
334;1.0711202999991656;2411
335;1.0740325000006123;2411
336;1.077041399999871;2410
337;1.0800312999999733;2410
338;1.083054799999445;2410
339;1.0860479999992094;2410
340;1.0887287999994442;2410
341;1.0920707999994193;2409
342;1.0950386000004073;2409
343;1.098185900000317;2408
344;1.1007508000002417;2407
345;1.1040842000002158;2407
346;1.1070390999993833;2407
347;1.110009699999864;2407
348;1.1130042000004323;2407
349;1.1160309000006237;2406
350;1.1190074999994977;2406
351;1.1219058000006044;2406
352;1.1250383000005968;2406
353;1.1279095000008965;2406
354;1.1310056000002078;2406
355;1.1340390000004845;2405
356;1.1370435000008001;2405
357;1.1400424999992538;2405
358;1.1430385000003298;2404
359;1.1460262000000512;2404
360;1.1490412000002834;2404
361;1.1520309999996243;2404
362;1.1550198999993881;2404
363;1.1580250000006345;2403
364;1.1610309000006964;2403
365;1.1639845999998215;2402
366;1.1670264000003954;2402
367;1.1700084000003699;2402
368;1.1730155000004743;2402
369;1.1758061000000453;2402
370;1.1787451000000146;2402
371;1.181914400000096;2401
372;1.1848472000001493;2401
373;1.1880244000003586;2401
374;1.1906522999997833;2401
375;1.1926342000006116;2401
376;1.1949810999994952;2401
377;1.1980027999998129;2401
378;1.2009971999996196;2400
379;1.2040195999998105;2400
380;1.206746399999247;2400
381;1.2096851999995124;2400
382;1.2129399000004923;2400
383;1.2159647999997105;2400
384;1.2189591999995173;2400
385;1.2218809999994846;2400
386;1.2247329999991052;2400
387;1.2267004999994242;2400
388;1.2287001999993663;2400
389;1.2315677999995387;2400
390;1.233592000000499;2400
391;1.235548700000436;2400
392;1.237744100000782;2400
393;1.2397571000001335;2400
394;1.2417375999993965;2400
395;1.2436875000003056;2400
396;1.2456846999994013;2400
397;1.2477046999993036;2400
398;1.2496931999994558;2400
399;1.2516995999994833;2400
400;1.2535807000003842;2400
401;1.2555582000004506;2400
402;1.2577251999991859;2400
403;1.259703100000479;2400
404;1.2616175999992265;2400
405;1.2637149000001955;2400
406;1.2656461999995372;2400
407;1.2677564999994502;2400
408;1.2696919000009075;2400
409;1.272749499999918;2400
410;1.2746669999996811;2400
411;1.2767684999998892;2400
412;1.2787164000001212;2400
413;1.2806925000004412;2400
414;1.2826509999995324;2400
415;1.2847863000006328;2400
416;1.2880335999998351;2400
417;1.2910553000001528;2400
418;1.294067200000427;2400
419;1.2970430999994278;2400
420;1.300058299999364;2400
421;1.3030450999995082;2400
422;1.3057399000008445;2400
423;1.3090573999998014;2400
424;1.3120534000008774;2400
425;1.3150559999994584;2400
426;1.3179727000006096;2400
427;1.320746199999121;2401
428;1.3226918000000296;2401
429;1.325928300000669;2401
430;1.3290235000004031;2401
431;1.331904200000281;2401
432;1.3350296000007802;2401
433;1.3380154999995284;2402
434;1.3410449999992125;2402
435;1.3440420999995695;2402
436;1.3470280000001367;2402
437;1.350043700000242;2402
438;1.3530305000003864;2403
439;1.3559631000007357;2403
440;1.3590222999991965;2403
441;1.3620281999992585;2403
442;1.3650316999992356;2404
443;1.3680265999992116;2404
444;1.3710310999995272;2404
445;1.3740355000009004;2404
446;1.3770327000001998;2405
447;1.3800387999999657;2406
448;1.383028899999772;2406
449;1.38603460000013;2406
450;1.3886884999992617;2406
451;1.3920232000000397;2407
452;1.394661800000904;2407
453;1.3980391999994026;2407
454;1.401042100000268;2408
455;1.4040296999992279;2408
456;1.4070346000007703;2408
457;1.40998159999981;2408
458;1.4130285999999614;2409
459;1.4160298999995575;2409
460;1.4190311999991536;2409
461;1.421802499999103;2409
462;1.425037400000292;2410
463;1.4277705000004062;2410
464;1.4308436999999685;2410
465;1.4339923999996245;2410
466;1.4370414999993955;2411
467;1.440028600000005;2411
468;1.4428943000002619;2412
469;1.4460486000007222;2412
470;1.4490191000004415;2412
471;1.452029300000504;2413
472;1.4550199000004795;2413
473;1.4576118000004499;2413
474;1.4610322999997152;2413
475;1.4640283000007912;2414
476;1.4670253000003868;2414
477;1.4700353999996878;2414
478;1.4730177000001277;2415
479;1.4760203000005276;2415
480;1.4790195999994467;2416
481;1.4820283000008203;2416
482;1.4850196999996115;2416
483;1.4879889999992884;2417
484;1.4910180000006221;2418
485;1.4940262000000075;2418
486;1.4970216000001528;2418
487;1.5000213000002987;2419
488;1.503004599999258;2419
489;1.5056949999998324;2420
490;1.5090227000000596;2421
491;1.512024100000417;2421
492;1.514989200000855;2421
493;1.5180137000006653;2422
494;1.5210103999997955;2422
495;1.52402389999952;2422
496;1.5267476000008173;2423
497;1.5300379000000248;2423
498;1.533017399999153;2424
499;1.5357984000002034;2425
500;1.5377246999996714;2425
501;1.5397016999995685;2426
502;1.5428193999996438;2426
503;1.5457958999995753;2426
504;1.5479173000003357;2427
505;1.5508043999998335;2427
506;1.5528078999996069;2428
507;1.5556603999993968;2428
508;1.5579422999999224;2428
509;1.5608480999999301;2429
510;1.5638503999998647;2429
511;1.5668337999995856;2430
512;1.5700772000000143;2430
513;1.5729248999996344;2430
514;1.577443800000765;2431
515;1.5814341999994213;2432
516;1.5852988999995432;2432
517;1.5888417999995;2433
518;1.5922668000002886;2434
519;1.5962868000005983;2434
520;1.6003216999997676;2436
521;1.6042952000007062;2436
522;1.6072755999994115;2437
523;1.6112909000003128;2437
524;1.6151038999996672;2437
525;1.618223900000885;2438
526;1.621994099999938;2438
527;1.6252220000005764;2438
528;1.6293046999999206;2439
529;1.6322137000006478;2440
530;1.6352057999993121;2440
531;1.638299399999596;2440
532;1.6410515000006853;2441
533;1.644054700000197;2441
534;1.6468258000004425;2442
535;1.649768100000074;2442
536;1.651858400000492;2441
537;1.6547482999994827;2442
538;1.6565511000007973;2442
539;1.6587282000000414;2443
540;1.660765900000115;2443
541;1.6627313000008144;2443
542;1.664738600000419;2443
543;1.6667390000002342;2444
544;1.6687421999995422;2444
545;1.6707506999991892;2444
546;1.6727680999993026;2444
547;1.674760600000809;2444
548;1.6767643999992288;2445
549;1.6787571999993816;2445
550;1.6807370000005903;2445
551;1.6827615999991394;2445
552;1.6847194999991189;2445
553;1.686737500000163;2446
554;1.6886180000001332;2446
555;1.6907420999996248;2446
556;1.692746000000625;2447
557;1.6947529000008217;2447
558;1.6967566999992414;2447
559;1.6987442000008741;2448
560;1.700745599999209;2448
561;1.7027484999998705;2448
562;1.704726899999514;2448
563;1.7067501000001357;2448
564;1.7087281000003713;2449
565;1.7107520000008662;2449
566;1.7138460999995004;2449
567;1.7173917000000074;2449
568;1.7214953000002424;2450
569;1.7242440999998507;2451
570;1.7282656999996107;2452
571;1.7323386000007304;2452
572;1.736320699999851;2452
573;1.7402953000000707;2452
574;1.743035499999678;2452
575;1.7460212999994837;2453
576;1.7489889999997104;2453
577;1.752108099999532;2453
578;1.7550936999996338;2453
579;1.7581950000003417;2454
580;1.7610342000007222;2454
581;1.7639302000006865;2454
582;1.7670775999995385;2455
583;1.7700710999997682;2455
584;1.7728325999996741;2455
585;1.7760608000007778;2456
586;1.779072499999529;2456
587;1.7820360999994591;2456
588;1.7850653000004968;2456
589;1.787903099999312;2456
590;1.7910673999995197;2457
591;1.7940484999999171;2456
592;1.7970600000007835;2456
593;1.8000752000007196;2456
594;1.8027949999996054;2457
595;1.8059830000001966;2457
596;1.8090467000001809;2457
597;1.8120648000003712;2457
598;1.8151020000004792;2457
599;1.8180365000007441;2457
600;1.8210345000006782;2457
601;1.824056199999177;2458
602;1.8270298000006733;2458
603;1.830029900000227;2458
604;1.833031000000119;2458
605;1.8360372999995889;2458
606;1.8387067000003299;2458
607;1.842033700000684;2458
608;1.8450432999998156;2458
609;1.8480314000007638;2458
610;1.8507119999994757;2458
611;1.8530570000002626;2458
612;1.8558069999999134;2458
613;1.8590368000004673;2458
614;1.8620370999997249;2458
615;1.8650261000002502;2458
616;1.867971800000305;2458
617;1.8707515000005515;2457
618;1.8729982000004384;2457
619;1.875978899999609;2457
620;1.878979099999924;2457
621;1.881728700000167;2457
622;1.8850074000001769;2457
623;1.8880038000006607;2457
624;1.8910020000002987;2457
625;1.8940041000005294;2456
626;1.8969797999998264;2456
627;1.9000374999995984;2456
628;1.9030242999997427;2456
629;1.905885300000591;2456
630;1.9090194000000338;2456
631;1.9120110999992903;2456
632;1.9150296000007074;2455
633;1.9180140999997093;2455
634;1.9210136000001512;2455
635;1.9240162999994936;2455
636;1.9270176999998512;2454
637;1.930027300000802;2454
638;1.9330238000002282;2454
639;1.9360194000000774;2453
640;1.9387045999992552;2453
641;1.9420434000003297;2453
642;1.944772599999851;2453
643;1.9480325000004086;2453
644;1.9510117999998329;2452
645;1.9540376999993896;2452
646;1.9570437999991555;2452
647;1.9600018000001;2452
648;1.963019799999529;2452
649;1.9660153999993781;2452
650;1.9690360999993572;2451
651;1.971711399999549;2451
652;1.975041899999269;2451
653;1.9778021999991324;2450
654;1.9807302999997773;2450
655;1.9840120999997453;2450
656;1.986999900000228;2450
657;1.9900486000005913;2450
658;1.9930177000005642;2449
659;1.9960284999997384;2448
660;1.999003700000685;2448
661;2.002020800000537;2448
662;2.004978299999493;2447
663;2.0080433000002813;2447
664;2.011015000000043;2447
665;2.014043400000446;2447
666;2.017008999999234;2447
667;2.020015300000523;2446
668;2.023024500000247;2446
669;2.026011699999799;2445
670;2.0290196999994805;2445
671;2.0320448000002216;2445
672;2.035027699999773;2444
673;2.038013299999875;2444
674;2.0410293999993883;2443
675;2.044039700000212;2443
676;2.0470464000009088;2443
677;2.0500427999995736;2443
678;2.053047299999889;2442
679;2.056043900000077;2442
680;2.0590358000008564;2441
681;2.062049599999227;2441
682;2.0650466999995842;2441
683;2.068043299999772;2441
684;2.0710440000002563;2440
685;2.074048700000276;2440
686;2.0770405999992363;2440
687;2.0800467999997636;2439
688;2.0830533000007563;2439
689;2.0857278000003134;2438
690;2.088653400000112;2438
691;2.090962300000683;2437
692;2.0939976000008755;2437
693;2.09699080000064;2437
694;2.1000034000007872;2436
695;2.1030083000005106;2436
696;2.106021300000066;2436
697;2.109040900000764;2435
698;2.1120202999991307;2434
699;2.115019200000461;2435
700;2.118018099999972;2435
701;2.121035500000289;2434
702;2.124064499999804;2434
703;2.1267595999997866;2433
704;2.1299541000007594;2433
705;2.13291449999997;2433
706;2.1359802999995736;2432
707;2.1387754999996105;2432
708;2.1420713999996224;2431
709;2.145094199999221;2431
710;2.148058200000378;2430
711;2.1510892000005697;2430
712;2.1540810000005877;2430
713;2.1570921999991697;2429
714;2.160092199999781;2428
715;2.1630834999996296;2428
716;2.1657596999993984;2428
717;2.167753800000355;2427
718;2.1699650999998994;2427
