;time;amplitude
0;0.003744100000403705;2407
1;0.006996200001594843;2407
2;0.009716900000057649;2407
3;0.012850099999923259;2408
4;0.015725799999927403;2408
5;0.018648000001121545;2409
6;0.02190800000062154;2409
7;0.024910500000260072;2409
8;0.02796160000070813;2409
9;0.030942100000174833;2410
10;0.03393340000002354;2410
11;0.03693170000042301;2410
12;0.039724100000967155;2410
13;0.0427272000015364;2411
14;0.04594780000115861;2411
15;0.04892820000168285;2412
16;0.05219380000016827;2412
17;0.056278300000485615;2412
18;0.06027390000053856;2413
19;0.06470489999992424;2413
20;0.07075179999992542;2414
21;0.07576450000124169;2414
22;0.0803183000007266;2414
23;0.08585440000024391;2414
24;0.09035120000044117;2414
25;0.0957496999999421;2415
26;0.10050460000093153;2415
27;0.10518170000068494;2416
28;0.10906290000093577;2416
29;0.11287600000105158;2417
30;0.11722960000042804;2417
31;0.12125430000014603;2417
32;0.12533070000063162;2418
33;0.12889960000029532;2419
34;0.13297940000120434;2419
35;0.13726060000044527;2419
36;0.14126020000003336;2420
37;0.14485980000063137;2420
38;0.14830890000121144;2421
39;0.15232290000130888;2422
40;0.15627880000101868;2422
41;0.16013180000118155;2423
42;0.16445610000118904;2423
43;0.16827890000058687;2424
44;0.17231960000026447;2424
45;0.17634840000027907;2425
46;0.17998160000024654;2425
47;0.18326060000072175;2425
48;0.18726110000170593;2426
49;0.1912238000004436;2427
50;0.19526330000007874;2427
51;0.19930290000047535;2427
52;0.20327429999997548;2428
53;0.20681950000107463;2428
54;0.21019390000037674;2428
55;0.2138466000014887;2429
56;0.21677830000044196;2429
57;0.22019300000101794;2429
58;0.22437080000054266;2430
59;0.22792290000143112;2430
60;0.23111290000088047;2430
61;0.23540980000143463;2430
62;0.23911480000060692;2431
63;0.24190010000165785;2431
64;0.24588990000120248;2432
65;0.24890850000156206;2432
66;0.25222500000018044;2433
67;0.256023500000083;2433
68;0.25870170000052894;2433
69;0.26169370000025083;2433
70;0.2649829000001773;2434
71;0.268979100001161;2434
72;0.27298420000079204;2435
73;0.2757612000004883;2435
74;0.2786946000014723;2435
75;0.2818120000010822;2436
76;0.2851170000012644;2437
77;0.2880103000006784;2437
78;0.29228990000046906;2437
79;0.29576150000139023;2437
80;0.2991172000001825;2438
81;0.3031869000005827;2438
82;0.3071746000005078;2439
83;0.31121970000094734;2439
84;0.31395490000068094;2440
85;0.31820840000000317;2440
86;0.32175310000093305;2440
87;0.3246203000016976;2440
88;0.3278243000004295;2441
89;0.330820400000448;2441
90;0.333852100000513;2441
91;0.33662570000160486;2441
92;0.33987810000144236;2442
93;0.34288070000002335;2442
94;0.345735800001421;2443
95;0.34885340000073484;2443
96;0.35187470000164467;2443
97;0.35486889999992854;2444
98;0.35787530000015977;2443
99;0.360869800000728;2444
100;0.36388220000117144;2444
101;0.3665913000004366;2445
102;0.3697546000003058;2445
103;0.3728541000000405;2445
104;0.37587320000056934;2445
105;0.37856140000076266;2446
106;0.381868200000099;2446
107;0.3848820000002888;2447
108;0.3878736000006029;2447
109;0.3908504000009998;2447
110;0.39387860000169894;2448
111;0.39687340000091353;2448
112;0.3995996000012383;2448
113;0.4028520000010758;2448
114;0.4058680000016466;2449
115;0.40887820000170905;2449
116;0.4115417000011803;2449
117;0.41481480000038573;2449
118;0.41776470000149857;2450
119;0.4207638000007137;2450
120;0.4238418000004458;2450
121;0.4268403000005492;2450
122;0.42985680000128923;2450
123;0.4324978000004194;2451
124;0.43453540000155044;2451
125;0.43657080000048154;2451
126;0.4396141000015632;2451
127;0.44154900000103225;2452
128;0.44355300000097486;2452
129;0.4454702000002726;2452
130;0.4476220000015019;2453
131;0.45062070000130916;2453
132;0.45255290000022796;2453
133;0.4545291000013094;2453
134;0.4576118000004499;2453
135;0.45955750000030093;2453
136;0.46246220000102767;2454
137;0.4646260000008624;2454
138;0.46761530000003404;2454
139;0.4706138000001374;2455
140;0.4725620000008348;2455
141;0.47561450000102923;2456
142;0.47842990000026475;2456
143;0.4815615000006801;2456
144;0.4835625000014261;2457
145;0.48560620000171184;2456
146;0.487518200001432;2456
147;0.4894960000001447;2457
148;0.4914981000001717;2457
149;0.4935226000015973;2457
150;0.49552760000005946;2457
151;0.49758030000157305;2457
152;0.49957500000164146;2457
153;0.5025771000000532;2457
154;0.504551400001219;2457
155;0.5065228000003117;2458
156;0.5085456000015256;2458
157;0.5115290000012465;2459
158;0.5145203000010952;2459
159;0.5165123000006133;2459
160;0.518404800001008;2459
161;0.520513800000117;2460
162;0.5225130000017089;2460
163;0.5244870000005903;2461
164;0.5276825000000827;2461
165;0.5305441000000428;2462
166;0.5336193000002822;2462
167;0.5354870999999548;2462
168;0.5384885000003123;2462
169;0.5403271000013774;2463
170;0.5423850000006496;2463
171;0.5443948000011005;2463
172;0.5475071000000753;2463
173;0.5493702000003395;2463
174;0.5514445000007981;2463
175;0.5534150000003137;2464
176;0.5553460000010091;2464
177;0.5573707000003196;2464
178;0.5593874000005599;2465
179;0.5614596000013989;2465
180;0.5635385000005044;2465
181;0.5654346999999689;2465
182;0.5674393000008422;2466
183;0.5694336000015028;2466
184;0.5714385000010225;2466
185;0.5734699000004184;2467
186;0.5754364000003989;2467
187;0.5774215000001277;2467
188;0.5794244000007893;2467
189;0.581375300000218;2467
190;0.5833687000013015;2466
191;0.5854755000000296;2466
192;0.58749490000082;2466
193;0.5893524000002799;2465
194;0.591367300001366;2466
195;0.5933420000001206;2466
196;0.5954240000010032;2466
197;0.5973449000011897;2466
198;0.5993750000016007;2466
199;0.6014821000007942;2466
200;0.6034188000012364;2466
201;0.6053938000004564;2467
202;0.6074342000010802;2467
203;0.6093798000001698;2467
204;0.6113066000016261;2467
205;0.61327540000093;2467
206;0.6152842000010423;2467
207;0.6172743000006449;2467
208;0.6192819000007148;2467
209;0.6213961000012205;2468
210;0.6232834000002185;2468
211;0.6253577000006771;2468
212;0.627382900000157;2468
213;0.6293721000001824;2469
214;0.6313839000013104;2469
215;0.6333913000016764;2469
216;0.6353561000014452;2469
217;0.6373886000001221;2469
218;0.63938650000091;2469
219;0.6413832000016555;2470
220;0.6433358000012959;2470
221;0.6453922000000603;2470
222;0.6474579000005178;2470
223;0.6494054000013421;2470
224;0.6513306000015291;2470
225;0.6533323000003293;2471
226;0.6553427000017109;2471
227;0.6573267000003398;2471
228;0.6593263000013394;2472
229;0.6613089000002219;2472
230;0.6633927000002586;2473
231;0.6653466000007029;2472
232;0.6673700000010285;2472
233;0.6693309000002046;2472
234;0.6713922000017192;2473
235;0.673444500000187;2473
236;0.6753013000015926;2474
237;0.6773188000006485;2473
238;0.6793518000013137;2473
239;0.6812946000009106;2473
240;0.6832825000001321;2474
241;0.6852777000003698;2474
242;0.6872901000006095;2474
243;0.6892866000016511;2474
244;0.6912787000001117;2474
245;0.6933800000006158;2474
246;0.6953910000011092;2474
247;0.6973766999999498;2474
248;0.6993398000013258;2474
249;0.7014502000001812;2474
250;0.7034041000006255;2474
251;0.7054414000012912;2474
252;0.7074388000000909;2474
253;0.7093538000008266;2475
254;0.7113999000011972;2475
255;0.7133454000013444;2475
256;0.7153911000004882;2475
257;0.7173436000011861;2476
258;0.7193590000006225;2476
259;0.721387000001414;2476
260;0.723331800001688;2476
261;0.7252834000009898;2476
262;0.7273913000008179;2476
263;0.7294154999999591;2477
264;0.7314202000015939;2477
265;0.733447000000524;2477
266;0.7353708000009647;2477
267;0.7373466000008193;2477
268;0.7393910999999207;2477
269;0.74137520000113;2478
270;0.7433843000017077;2478
271;0.7453809000016918;2478
272;0.7473277000008238;2478
273;0.7493414000000485;2479
274;0.7514355000002979;2479
275;0.7533380000004399;2479
276;0.7552876000008837;2479
277;0.7573480000010022;2479
278;0.7593487000012829;2479
279;0.7614048000014009;2479
280;0.7633267000001069;2479
281;0.7655030000005354;2480
282;0.7674265000005107;2480
283;0.7693697000013344;2480
284;0.7712898000008863;2480
285;0.7733323000011296;2480
286;0.7753296999999293;2480
287;0.7773852000009356;2481
288;0.7795051000011881;2481
289;0.7813395000011951;2481
290;0.7834973000008176;2481
291;0.7854973000012251;2481
292;0.7874926000004052;2481
293;0.7894543000002159;2481
294;0.7914722000004986;2481
295;0.7934482000000571;2481
296;0.7954363000008016;2481
297;0.7974240000003192;2480
298;0.7994271000006847;2481
299;0.8015552000015305;2481
300;0.8035538000003726;2481
301;0.805387400001564;2481
302;0.8073638000005303;2481
303;0.8093824000006862;2482
304;0.811381600000459;2482
305;0.8134577000000718;2482
306;0.8154660000000149;2482
307;0.8173717000008764;2482
308;0.8194037000012031;2482
309;0.8214532000001782;2482
310;0.8234384000006685;2482
311;0.8254200000010314;2482
312;0.827324600000793;2482
313;0.8294519000010041;2482
314;0.8313262000010582;2482
315;0.8334226000006311;2482
316;0.8353395000012824;2482
317;0.8372911000005843;2483
318;0.8394006000016816;2482
319;0.8413271000008535;2482
320;0.8433288000014727;2482
321;0.8453731000008702;2483
322;0.8473290000001725;2483
323;0.8493489000011323;2483
324;0.8513902000013331;2484
325;0.8534607000001415;2484
326;0.8554378000008;2484
327;0.8573952000006102;2484
328;0.8594765000016196;2484
329;0.861335900000995;2485
330;0.8633177000010619;2485
331;0.8652854000010848;2485
332;0.8672764000002644;2485
333;0.8692891000009695;2486
334;0.8713622000013856;2486
335;0.8733843000009074;2486
336;0.875335200000336;2486
337;0.8773415000014211;2486
338;0.8793562000009842;2486
339;0.8813597000007576;2486
340;0.8834032000013394;2486
341;0.8853398000010202;2486
342;0.8873793000002479;2486
343;0.889336700000058;2486
344;0.8913525000007212;2487
345;0.8933848000015132;2487
346;0.8954249000016716;2486
347;0.8974260000013601;2487
348;0.8993969000002835;2487
349;0.9013272000011057;2488
350;0.9033886000015627;2488
351;0.9054155000012543;2488
352;0.9073969000000943;2488
353;0.9094498000013118;2488
354;0.9114798000009614;2488
355;0.9135099000013724;2488
356;0.9154044000006252;2488
357;0.9173687000002246;2488
358;0.9194732000014483;2488
359;0.9214022000014666;2489
360;0.9234167000013258;2489
361;0.9253784000011365;2489
362;0.9275244000000384;2489
363;0.9294563000003109;2489
364;0.9315161000013177;2489
365;0.9335025000000314;2489
366;0.9353610000016488;2489
367;0.9373563000008289;2489
368;0.9393073999999615;2489
369;0.9412957000004099;2489
370;0.9433180000014545;2489
371;0.9454267000000982;2489
372;0.9473619000000326;2489
373;0.9493756000010762;2489
374;0.9513885000014852;2489
375;0.9532887000004848;2489
376;0.9552793000002566;2490
377;0.9572744000015518;2490
378;0.9592857000006916;2490
379;0.9614089000006061;2490
380;0.9634152000016911;2490
381;0.965520400000969;2490
382;0.9675385000009555;2490
383;0.9695829000011145;2490
384;0.971388100000695;2490
385;0.9734922000006918;2490
386;0.9753241000016715;2490
387;0.9773393000014039;2489
388;0.9792907000010018;2489
389;0.9813372000007803;2489
390;0.9833785999999236;2490
391;0.9854597000012291;2490
392;0.9874158000002353;2490
393;0.9894012000004295;2490
394;0.9913322000011249;2490
395;0.9933843000017077;2490
396;0.9953617000010127;2490
397;0.9973975000011706;2489
398;0.9995452000002842;2489
399;1.0015373000005638;2489
400;1.003535700001521;2490
401;1.0055257000003621;2489
402;1.007517000000007;2490
403;1.0095006000010471;2490
404;1.0113521000002947;2490
405;1.0135478000011062;2490
406;1.0155366000017239;2491
407;1.0175389000014547;2491
408;1.0195143000000826;2491
409;1.0215158000009978;2491
410;1.0234919000013178;2491
411;1.0256005999999616;2491
412;1.0275102000014158;2491
413;1.0295945000016218;2491
414;1.0325929000009637;2491
415;1.0345203000015317;2491
416;1.036499100000583;2491
417;1.0386086000016803;2491
418;1.0405147000001307;2492
419;1.0424542000000656;2492
420;1.0444532000001345;2492
421;1.0465952000013203;2492
422;1.048508000001675;2492
423;1.0504900000014459;2492
424;1.052591500001654;2492
425;1.0556174000012106;2492
426;1.0575170000010985;2492
427;1.060583400001633;2492
428;1.0624573000004602;2492
429;1.0645781000002899;2492
430;1.066515900000013;2492
431;1.0696158000009746;2492
432;1.0726164000006975;2492
433;1.0744874000010896;2492
434;1.0775946000012482;2492
435;1.080596700001479;2492
436;1.0840853000008792;2492
437;1.0881118000015704;2491
438;1.0916641000003438;2491
439;1.0944670000008045;2491
440;1.0977364000009402;2491
441;1.1007009000004473;2491
442;1.1037002000011853;2491
443;1.106589900000472;2490
444;1.109729800000423;2490
445;1.1127629000002344;2490
446;1.1157357000010961;2490
447;1.11873210000158;2490
448;1.1214820000004693;2490
449;1.1247605000007752;2490
450;1.1277185000017198;2490
451;1.1308570000001055;2490
452;1.1338331000006292;2490
453;1.1367490000011458;2491
454;1.1395344000011391;2491
455;1.1428373000017018;2491
456;1.1458394000001135;2491
457;1.1488061000000016;2491
458;1.1517771000017092;2491
459;1.1548285000008036;2491
460;1.1578346000005695;2492
461;1.1608582000008028;2492
462;1.1638382000001002;2492
463;1.1668332000008377;2492
464;1.1698434000009001;2492
465;1.172839800001384;2492
466;1.1758323000012751;2492
467;1.1787210000002233;2493
468;1.181810800000676;2493
469;1.1843972000006033;2493
470;1.1878411000016058;2493
471;1.1908070000008593;2494
472;1.1938352000015584;2494
473;1.1968590000014956;2494
474;1.1997865000012098;2494
475;1.20259630000146;2493
476;1.205751000001328;2493
477;1.208611000000019;2493
478;1.2117301000016596;2493
479;1.2147391000016796;2494
480;1.2178781000002346;2494
481;1.2207960000014282;2494
482;1.2238762000015413;2494
483;1.226855400000204;2495
484;1.2298779000011564;2495
485;1.2328537000012147;2494
486;1.2357297000016843;2494
487;1.2388729000012972;2494
488;1.2418447000000015;2494
489;1.2444073000006028;2494
490;1.246771300000546;2494
491;1.2498450000002777;2494
492;1.2528348000014375;2494
493;1.2558477000002313;2494
494;1.2588340000002063;2494
495;1.261519200001203;2494
496;1.2647618999999395;2494
497;1.267755800001396;2494
498;1.270847200001299;2494
499;1.2738145000002987;2495
500;1.2768345000004047;2495
501;1.2795968000009452;2495
502;1.2815884000010556;2495
503;1.2839438999999402;2496
504;1.2882478999999876;2496
505;1.2921359000010852;2495
506;1.2960548000010021;2495
507;1.2990374000000884;2495
508;1.3031492000009166;2495
509;1.307153700001436;2495
510;1.310715200001141;2495
511;1.3135958000002574;2494
512;1.3168179000003875;2495
513;1.3197851000004448;2495
514;1.322809100000086;2495
515;1.325668500001484;2494
516;1.3285467000005156;2494
517;1.3318419000006543;2495
518;1.3348355000016454;2495
519;1.3378373000014108;2495
520;1.340805600000749;2494
521;1.3438396000001376;2494
522;1.346840100000918;2494
523;1.3498365000014019;2494
524;1.3526784000005136;2494
525;1.355840400001398;2493
526;1.3585901000005833;2493
527;1.360607800001162;2492
528;1.363693700001022;2492
529;1.3668495000001712;2493
530;1.3698381000012887;2492
531;1.37271470000087;2492
532;1.3758542000014131;2492
533;1.3786407000006875;2493
534;1.3818370000008144;2493
535;1.3848465999999462;2493
536;1.3875772999999754;2493
537;1.3903508000003058;2492
538;1.3926328000015928;2492
539;1.3960057000003872;2492
540;1.4001493000014307;2492
541;1.4041638000016974;2492
542;1.4081640000003972;2492
543;1.411715500000355;2492
544;1.4161775000011403;2492
545;1.4199071000002732;2492
546;1.4230281000000105;2492
547;1.42611830000169;2493
548;1.430121000001236;2493
549;1.4341432000001078;2493
550;1.4370527999999467;2493
551;1.44005130000005;2494
552;1.442884200001572;2494
553;1.445924900001046;2494
554;1.4488813000007212;2494
555;1.4518851000011637;2494
556;1.4548793000012665;2494
557;1.4578821000013704;2494
558;1.4608858999999939;2495
559;1.4638362000005145;2494
560;1.4668326999999408;2495
561;1.4698281000000861;2495
562;1.4728780000004917;2495
563;1.4758653000008053;2495
564;1.4787394000013592;2495
565;1.481870900001013;2495
566;1.484864000000016;2495
567;1.4878333000015118;2496
568;1.490836599999966;2496
569;1.4938322000016342;2495
570;1.4968569000011485;2495
571;1.4998657000014646;2495
572;1.502856500001144;2494
573;1.5058603000015864;2494
574;1.5088665000002948;2494
575;1.5115381000014168;2494
576;1.5146810000005644;2494
577;1.5176096000013786;2494
578;1.520559200000207;2494
579;1.522585100001379;2494
580;1.5246053999999276;2495
581;1.5266384000005928;2494
582;1.5298906000007264;2494
583;1.5325450000000274;2494
584;1.535508500001015;2494
585;1.5374992000015482;2495
586;1.5395053000011103;2494
587;1.5415306000013516;2495
588;1.543522900001335;2495
589;1.5465616000001319;2495
590;1.5485758000013448;2495
591;1.5521674000010535;2495
592;1.5561406000015268;2494
593;1.5601591000013286;2495
594;1.5625279000014416;2494
595;1.5645947000011802;2495
596;1.5675887000015791;2495
597;1.5705800000014278;2495
598;1.5742371000014828;2495
599;1.5778005000011035;2495
600;1.5808553000006214;2495
601;1.5838630000016565;2495
602;1.5868519000014203;2494
603;1.5898687000008067;2495
604;1.5925843000004534;2495
605;1.5957932000001165;2495
606;1.5988817000015842;2494
607;1.6018710000007559;2495
608;1.6048814000005223;2494
609;1.607981800001653;2494
610;1.6107750000010128;2494
611;1.6137674000001425;2494
612;1.6167816000015591;2494
613;1.619865500000742;2495
614;1.6228727000016079;2495
615;1.625459700000647;2495
616;1.6275505000012345;2495
617;1.6294790000010835;2495
618;1.6314781000000949;2495
619;1.6334728000001633;2495
620;1.6355036000004475;2495
621;1.6375099000015325;2495
622;1.639419099999941;2495
623;1.6414733000001434;2495
624;1.6434865999999602;2495
625;1.6453775000009045;2495
626;1.6474111000006815;2495
627;1.6495123000004241;2496
628;1.6515643000002456;2496
629;1.6534818000000087;2495
630;1.65535440000167;2496
631;1.6575351000010414;2496
632;1.6595344000015757;2496
633;1.662622800000463;2496
634;1.6645359000012832;2495
635;1.6665237000015622;2495
636;1.6696295000001555;2495
637;1.6726404000000912;2495
638;1.6756195000016305;2495
639;1.6775416000000405;2495
640;1.679623800000627;2495
641;1.6815265000004729;2495
642;1.6835440000013477;2495
643;1.6865640000014537;2495
644;1.6896126999999979;2495
645;1.6932455000005575;2495
646;1.6971757999999681;2494
647;1.7011665000009089;2494
648;1.7041149000015139;2494
649;1.7081606000010652;2494
650;1.7116808999999193;2494
651;1.714947000000393;2494
652;1.7179367000007915;2494
653;1.7208637000003364;2494
654;1.7238542000013695;2494
655;1.7268575000016426;2494
656;1.7298516999999265;2494
657;1.7328648000002431;2494
658;1.7358518000000913;2494
659;1.7388729000012972;2494
660;1.7418755000016972;2494
661;1.7446073000010074;2494
662;1.7478796000013972;2494
663;1.7505784000004496;2494
664;1.7524991000009322;2494
665;1.7545473000009224;2494
666;1.7576183000001038;2494
667;1.7606747000008909;2494
668;1.7624691000000894;2494
669;1.7645548000000417;2494
670;1.7666243000003305;2494
671;1.7685360000014043;2494
672;1.7716832000005525;2494
673;1.7746126000001823;2494
674;1.7765582000010909;2494
675;1.7784577000002173;2494
676;1.7805896000008943;2494
677;1.7825339999999414;2494
678;1.7845390000002226;2494
679;1.7876251000016055;2494
680;1.7895367000000988;2494
681;1.7926278000013554;2494
682;1.7944526000010228;2493
683;1.7964465000004566;2493
684;1.798554900000454;2494
685;1.8016143000004377;2494
686;1.8035511000016413;2494
687;1.8066137000005256;2493
688;1.80857030000152;2494
689;1.8105414000001474;2494
690;1.8125968000003922;2494
691;1.8145774000004167;2493
692;1.8182497000016156;2493
693;1.8222547000004852;2493
694;1.8261424000011175;2494
695;1.8301622000017232;2493
696;1.8341673000013543;2493
697;1.838159100001576;2494
698;1.8421673000011651;2494
699;1.845663300000524;2494
700;1.8491008000000875;2494
701;1.8528985000011744;2493
702;1.8559316000009858;2493
703;1.8589234000010038;2493
704;1.86159570000018;2493
705;1.8645411000015883;2493
706;1.8680045000000973;2493
707;1.8722179000014876;2494
708;1.8761247000002186;2494
709;1.880036200000177;2494
710;1.8846888000007311;2493
711;1.889693700000862;2494
712;1.8947316000012506;2494
713;1.8995289000013145;2494
714;1.9044512000000395;2494
715;1.908190400001331;2494
716;1.911950200001229;2494
