;time;amplitude
0;0.004912899999908404;2432
1;0.010018299999501323;2432
2;0.015180899999904796;2431
3;0.02001890000065032;2430
4;0.024973199999294593;2429
5;0.03004970000074536;2428
6;0.03436549999969429;2428
7;0.03869510000004084;2428
8;0.04247580000082962;2427
9;0.046702100000402424;2426
10;0.05060520000006363;2426
11;0.05453019999913522;2425
12;0.058542799999486306;2424
13;0.0625889000002644;2424
14;0.06597920000058366;2423
15;0.07059579999986454;2423
16;0.07452759999978298;2422
17;0.07812379999995755;2422
18;0.08201229999940551;2421
19;0.08545430000049237;2421
20;0.08830090000083146;2420
21;0.09258869999939634;2420
22;0.09614169999986188;2420
23;0.09910350000063772;2419
24;0.1024517999994714;2419
25;0.10649679999914952;2418
26;0.11057219999929657;2417
27;0.11299549999966985;2417
28;0.11602300000049581;2417
29;0.12053139999989071;2416
30;0.12441589999980351;2415
31;0.12847829999918758;2415
32;0.13211059999957797;2414
33;0.13546060000044235;2414
34;0.13953550000042014;2413
35;0.14309080000020913;2413
36;0.14602869999907853;2413
37;0.1490814999997383;2413
38;0.15221120000023802;2412
39;0.1552088000007643;2412
40;0.15842659999907482;2412
41;0.16220240000075137;2411
42;0.16501349999998638;2411
43;0.16820179999922402;2410
44;0.17121699999916018;2410
45;0.17404870000063966;2410
46;0.17719290000059118;2410
47;0.1802004000001034;2410
48;0.18319569999948726;2409
49;0.18619260000014037;2409
50;0.18919679999999062;2409
51;0.19220029999996768;2408
52;0.1951989000008325;2408
53;0.19792749999942316;2408
54;0.20118770000044606;2407
55;0.20419770000080462;2407
56;0.20723279999947408;2407
57;0.21022439999978815;2407
58;0.21319000000039523;2406
59;0.21619649999956891;2406
60;0.21919610000077228;2406
61;0.22219360000053712;2405
62;0.22523259999979928;2405
63;0.2282018000005337;2404
64;0.23109560000011697;2404
65;0.23419280000052822;2404
66;0.23710419999952137;2404
67;0.24019570000018575;2404
68;0.24319520000062766;2403
69;0.2461939999993774;2404
70;0.2492110999992292;2403
71;0.2521995999995852;2403
72;0.2550405999991199;2403
73;0.25802029999977094;2403
74;0.26116390000061074;2403
75;0.2641805999992357;2403
76;0.2672220999993442;2403
77;0.2701949999991484;2403
78;0.2731901999995898;2404
79;0.276192400000582;2404
80;0.27919629999996687;2404
81;0.2819755000000441;2404
82;0.285188100000596;2403
83;0.2881978000004892;2403
84;0.29119530000025406;2403
85;0.29420109999955457;2404
86;0.2971923000004608;2404
87;0.300062500000422;2403
88;0.303227300000799;2403
89;0.30618999999933294;2403
90;0.3092022000000725;2403
91;0.3122308999991219;2403
92;0.3149180000000342;2403
93;0.3182142000005115;2403
94;0.32121639999968465;2403
95;0.32408140000006824;2403
96;0.3271941000002698;2403
97;0.330102199999601;2403
98;0.33311329999924055;2403
99;0.33611390000078245;2403
100;0.33919520000017656;2403
101;0.34222609999960696;2403
102;0.34519000000000233;2403
103;0.3479549000003317;2404
104;0.351199099999576;2403
105;0.3541910999992979;2403
106;0.3572015999998257;2403
107;0.360219700000016;2404
108;0.36295500000051106;2404
109;0.36619190000055823;2404
110;0.37019560000044294;2404
111;0.3732008000006317;2405
112;0.37624329999925976;2405
113;0.3790131999994628;2405
114;0.3819318999994721;2406
115;0.3851969999996072;2406
116;0.3882030000004306;2406
117;0.39106899999933376;2406
118;0.3941825999991124;2406
119;0.39721110000027693;2406
120;0.40019740000025195;2406
121;0.4031981000007363;2406
122;0.4061956999994436;2407
123;0.40919509999912407;2408
124;0.41220629999952507;2408
125;0.4149187000002712;2408
126;0.41818980000061856;2408
127;0.4212191000005987;2408
128;0.4242346999999427;2408
129;0.4271991999994498;2409
130;0.43021650000082445;2409
131;0.43319399999927555;2409
132;0.43623069999921427;2410
133;0.43919629999982135;2410
134;0.44224170000052254;2410
135;0.4452103999992687;2411
136;0.4479436999990867;2411
137;0.45121689999905357;2411
138;0.4541967000004661;2412
139;0.4568648000004032;2412
140;0.4602001000002929;2412
141;0.46318719999908353;2413
142;0.46619400000054156;2413
143;0.46919100000013714;2413
144;0.4722223999997368;2414
145;0.47500460000082967;2414
146;0.4780092999990302;2415
147;0.4810288999997283;2415
148;0.48419359999934386;2415
149;0.4871920000005048;2416
150;0.4901905999995506;2416
151;0.49318879999918863;2416
152;0.49618960000043444;2416
153;0.4992081000000326;2417
154;0.5021887999992032;2417
155;0.5051923999999417;2417
156;0.5081898000007641;2417
157;0.5111973999992188;2417
158;0.5141999999996187;2418
159;0.5171871999991708;2418
160;0.5198878999999579;2418
161;0.5231977000003099;2418
162;0.526208699999188;2419
163;0.5291954000003898;2420
164;0.5322099999993952;2420
165;0.5351274000004196;2420
166;0.538194000000658;2421
167;0.5410496999993484;2421
168;0.5441977999998926;2422
169;0.547199399999954;2422
170;0.5502022000000579;2422
171;0.5532038999990618;2423
172;0.5561914999998407;2423
173;0.5591839000007894;2424
174;0.5621916000000056;2425
175;0.564895699999397;2425
176;0.5681887999999162;2426
177;0.5711941999998089;2426
178;0.5740702999992209;2427
179;0.5771910999992542;2427
180;0.5801917999997386;2427
181;0.5828619000003528;2428
182;0.5859741000003851;2428
183;0.5891711999993277;2428
184;0.5921529000006558;2428
185;0.595166799999788;2429
186;0.5978293000007397;2429
187;0.6011985999994067;2429
188;0.6041898999992554;2430
189;0.6071805999999924;2431
190;0.6099543000000267;2431
191;0.6130594999995083;2432
192;0.6160870999992767;2432
193;0.6190748999997595;2432
194;0.6220479999992676;2433
195;0.6250736999991204;2433
196;0.6280695000004926;2433
197;0.6309667999994417;2434
198;0.6340667000004032;2434
199;0.6370716999990691;2434
200;0.6400544000007358;2434
201;0.6430670999998256;2435
202;0.6460585000004357;2436
203;0.649056099999143;2436
204;0.652072799999587;2437
205;0.6550403999990522;2437
206;0.6580809000006411;2438
207;0.6610736000002362;2439
208;0.6639598999990994;2439
209;0.6670680999995966;2439
210;0.6700486999998247;2439
211;0.6730709999992541;2439
212;0.6760935000002064;2440
213;0.6790562999995018;2441
214;0.6820860000007087;2441
215;0.6850670999992872;2442
216;0.6880521000002773;2442
217;0.6910520999990695;2442
218;0.6939251999992848;2443
219;0.6969067999998515;2443
220;0.7000403999991249;2443
221;0.7030618000007962;2444
222;0.7060380999992049;2444
223;0.7090680000001157;2444
224;0.7120801999990363;2444
225;0.7148550000001705;2445
226;0.718098800000007;2445
227;0.7210663999994722;2445
228;0.7240633999990678;2445
229;0.727075099999638;2445
230;0.7300861000003351;2445
231;0.7330748999993375;2446
232;0.7360979999994015;2446
233;0.7391055999996752;2447
234;0.7420750000001135;2447
235;0.74509930000022;2447
236;0.7478393000001233;2448
237;0.7510726000000432;2448
238;0.7541842999999062;2448
239;0.7571788999994169;2448
240;0.7601957999995648;2449
241;0.7631758999996237;2449
242;0.7661872000007861;2449
243;0.7691842000003817;2450
244;0.7719159999996918;2451
245;0.7739056999998866;2451
246;0.7772053999997297;2451
247;0.7801834999991115;2451
248;0.7832054999998945;2451
249;0.7861859999993612;2452
250;0.7891787999997177;2452
251;0.7921869999991031;2452
252;0.7951785999994172;2453
253;0.79782349999914;2452
254;0.8012029000001348;2453
255;0.8037688000003982;2453
256;0.8057650999999169;2453
257;0.807817700000669;2453
258;0.811140300000261;2453
259;0.8141066000007413;2453
260;0.8171450999998342;2453
261;0.8200694999995903;2453
262;0.8231840999997075;2453
263;0.8261834000004455;2453
264;0.829202200000509;2453
265;0.8321670000004815;2453
266;0.8348191999994015;2453
267;0.8380956000000879;2453
268;0.8410937999997259;2453
269;0.8442008000001806;2453
270;0.8471540999998979;2453
271;0.8502021999993303;2453
272;0.8532130000003235;2453
273;0.8561843000006775;2453
274;0.8591754999997647;2453
275;0.8621832999997423;2453
276;0.8650861999994959;2453
277;0.8681799999994837;2453
278;0.8711843000000954;2453
279;0.8741090999992593;2453
280;0.8771901000000071;2453
281;0.8798026999993454;2453
282;0.8819970999993529;2453
283;0.8851856000001135;2453
284;0.8881803999993281;2453
285;0.8911874999994325;2453
286;0.8941814999998314;2453
287;0.8972008000000642;2453
288;0.9002061999999569;2453
289;0.9032141999996384;2453
290;0.9061727999996947;2453
291;0.9091879000006884;2453
292;0.912175199999183;2453
293;0.9149426000003587;2452
294;0.9178615000000718;2452
295;0.9199989999997342;2452
296;0.9229716999998345;2452
297;0.924927199999729;2452
298;0.9269010000007256;2451
299;0.929973099999188;2451
300;0.9320100000004459;2451
301;0.9339660999994521;2451
302;0.9370063000005757;2451
303;0.9400258000005124;2451
304;0.9432820999991236;2451
305;0.9462695999991411;2451
306;0.9492725000000064;2451
307;0.952522499999759;2450
308;0.956580699999904;2450
309;0.9605527999992773;2450
310;0.9635448999997607;2449
311;0.9664962999995623;2449
312;0.9704863000006299;2449
313;0.9744757999997091;2448
314;0.9784734999993816;2448
315;0.9823199000002205;2448
316;0.9865253000007215;2448
317;0.9904967000002216;2448
318;0.9943891999992047;2448
319;0.9974103999993531;2447
320;1.0003333999993629;2447
321;1.0034054999996442;2447
322;1.0075120000001334;2446
323;1.0113710000005085;2446
324;1.0143709999993007;2446
325;1.017404099999112;2445
326;1.0203827999994246;2445
327;1.0239724000002752;2444
328;1.0267665999999736;2444
329;1.0289596000002348;2444
330;1.031901199999993;2444
331;1.0338637000004383;2444
332;1.0368089999992662;2444
333;1.0397720000000845;2443
334;1.04192779999903;2443
335;1.0439296000004106;2443
336;1.0459157999994204;2443
337;1.0478426999998192;2443
338;1.0499558999999863;2442
339;1.0518663999991986;2442
340;1.054797700000563;2442
341;1.0570310000002792;2441
342;1.060018599999239;2441
343;1.0630227999990893;2441
344;1.066256300000532;2440
345;1.0692636000003404;2440
346;1.0719004000002315;2440
347;1.0756411999991542;2439
348;1.0795995999997103;2439
349;1.0835064000002603;2438
350;1.08707990000039;2437
351;1.09046490000037;2437
352;1.0944872000000032;2437
353;1.0980517999996664;2436
354;1.101425200000449;2436
355;1.1044481999997515;2435
356;1.108227500000794;2434
357;1.1124615000007907;2434
358;1.1164914999990287;2434
359;1.1204885999995895;2433
360;1.1244752000002336;2432
361;1.1284856000002037;2432
362;1.1324344999993627;2431
363;1.1359823999991931;2431
364;1.1391566999991483;2431
365;1.1422693000004074;2430
366;1.1464863999990484;2430
367;1.149371899999096;2429
368;1.1524291999994603;2429
369;1.1564861999995628;2429
370;1.160475700000461;2428
371;1.1644116999996186;2427
372;1.167430499999682;2427
373;1.1714840000004187;2426
374;1.1754935000008118;2426
375;1.1794931000003999;2426
376;1.1834932000001572;2425
377;1.1874836000006326;2424
378;1.191473799999585;2424
379;1.1954893000001903;2423
380;1.1994620000004943;2423
381;1.2034834000005503;2423
382;1.2074517999990348;2422
383;1.2114854999999807;2421
384;1.2143503000006604;2421
385;1.2174080000004324;2420
386;1.2203943999993498;2420
387;1.2244919000004302;2420
388;1.2282895000007557;2419
389;1.2309328999999707;2419
390;1.2344178999992437;2418
391;1.2384941000000254;2418
392;1.2424843999997393;2418
393;1.2449125999992248;2417
394;1.2478570000002946;2417
395;1.2511386999995011;2417
396;1.2541973000006692;2416
397;1.2571270999997068;2416
398;1.2602425999994011;2415
399;1.2632192000000941;2415
400;1.2662452999993548;2414
401;1.26922679999916;2414
402;1.2722369999992225;2414
403;1.2748504999999568;2413
404;1.2782258999995975;2413
405;1.280839200000628;2413
406;1.2842533000002732;2412
407;1.2872122000007948;2412
408;1.2902422000006482;2412
409;1.2932278999996925;2411
410;1.2962219999990339;2411
411;1.299224200000026;2410
412;1.302217099999325;2410
413;1.3052134999998088;2410
414;1.308226499999364;2409
415;1.3112478000002739;2409
416;1.3141379000007873;2408
417;1.3172548999991704;2408
418;1.3202199000006658;2408
419;1.3232169999992038;2408
420;1.3262381999993522;2407
421;1.3292344000001322;2407
422;1.3322097000000213;2407
423;1.3352083999998285;2407
424;1.338058400000591;2407
425;1.3412045000004582;2407
426;1.344230000000607;2407
427;1.3471826000004512;2406
428;1.3502098000008118;2406
429;1.3531925000006595;2406
430;1.355928099999801;2406
431;1.3590456999991147;2405
432;1.3619968999992125;2405
433;1.3648551999995107;2405
434;1.366947500000606;2405
435;1.3698843000001943;2405
436;1.3720038999999815;2405
437;1.3739277999993647;2405
438;1.377038900000116;2405
439;1.3800315000007686;2405
440;1.3832523000000947;2405
441;1.385869100000491;2404
442;1.3892646000003879;2404
443;1.3921831999996357;2404
444;1.395193599999402;2403
445;1.3978444999993371;2404
446;1.4009848999994574;2404
447;1.4041715999992448;2404
448;1.4070776999997179;2404
449;1.4101926000003004;2403
450;1.4131618999999773;2403
451;1.4161951000005502;2404
452;1.4191735999993398;2404
453;1.4222000999998272;2404
454;1.4252092999995511;2404
455;1.4282241000000795;2404
456;1.4309749000003649;2403
457;1.4341788000001543;2403
458;1.437208199999077;2403
459;1.4402090000003227;2404
460;1.443207500000426;2403
461;1.446205899999768;2404
462;1.4492288999990706;2404
463;1.4522269999997661;2404
464;1.4552067999993596;2404
465;1.4582081000007747;2405
466;1.4612039000003278;2405
467;1.4639439000002312;2405
468;1.4669291999998677;2404
469;1.4699273999995057;2405
470;1.472820999999385;2404
471;1.4748376000006829;2404
472;1.476786400000492;2404
473;1.4787816000007297;2404
474;1.4808536000000458;2405
475;1.4841708999992989;2404
476;1.4871628000000783;2404
477;1.4901583999999275;2404
478;1.493173900000329;2403
479;1.4960288999991462;2404
480;1.499170499999309;2404
481;1.5021699000008084;2404
482;1.5051631999995152;2404
483;1.508142200000293;2405
484;1.5107516000007308;2405
485;1.514113900000666;2405
486;1.517190299999129;2405
487;1.5202109000001656;2405
488;1.5232273000001442;2405
489;1.526197699999102;2405
490;1.529204899999968;2405
491;1.532218099999227;2404
492;1.535213200000726;2405
493;1.5382050999996864;2405
494;1.5412013999994087;2406
495;1.544211099999302;2406
496;1.547195200000715;2407
497;1.5502042999996775;2407
498;1.5532105000002048;2407
499;1.5562054000001808;2408
500;1.559202099999311;2408
501;1.5622110000003886;2408
502;1.5652079999999842;2409
503;1.5682128000007651;2409
504;1.5712053000006563;2409
505;1.5739364999990357;2409
506;1.5769868999996106;2410
507;1.580199399999401;2410
508;1.5832133000003523;2410
509;1.5862106000004133;2411
510;1.589165100000173;2411
511;1.5922098999999434;2411
512;1.5952359000002616;2412
513;1.5979552999997395;2412
514;1.601209000000381;2413
515;1.6042054999998072;2413
516;1.6071496000004117;2414
517;1.6102116999991267;2413
518;1.613185700000031;2414
519;1.6162038999991637;2414
520;1.6192178999990574;2414
521;1.6222065000001749;2414
522;1.6252069999991363;2415
523;1.6282183999992412;2415
524;1.6309311999993952;2416
525;1.6342105000003357;2416
526;1.637203000000227;2417
527;1.6402099000006274;2417
528;1.6432107000000542;2418
529;1.6462021999996068;2418
530;1.6492113999993308;2419
531;1.6519499000005453;2419
532;1.6552351999998791;2419
533;1.658211100000699;2420
534;1.6612086999994062;2420
535;1.6640205000003334;2420
536;1.6671943000001193;2421
537;1.6702112999992096;2421
538;1.673206499999651;2421
539;1.6762108000002627;2421
540;1.6792057999991812;2422
541;1.6822090999994543;2422
542;1.6852457000004506;2423
543;1.6879761000000144;2423
544;1.6912064000007376;2423
545;1.6942017000001215;2424
546;1.697141599999668;2425
547;1.7002088999997795;2425
548;1.7032122000000527;2425
549;1.7062315000002855;2426
550;1.7092114000006404;2426
551;1.7122130999996443;2426
552;1.7149714000006497;2427
553;1.7182267999996839;2427
554;1.7212058999994042;2428
555;1.7241236999998364;2428
556;1.7271932999992714;2429
557;1.730192299999544;2429
558;1.7332033999991836;2429
559;1.73620850000043;2430
560;1.7392232000001968;2430
561;1.742215700000088;2431
562;1.7452135000003182;2431
563;1.7479067999993276;2431
564;1.7512351000004855;2432
565;1.754210900000544;2433
566;1.7572087000007741;2433
567;1.7602210000004561;2433
568;1.7629914000008284;2433
569;1.7650512000000163;2434
570;1.768188399999417;2434
571;1.7711639999997715;2434
572;1.7742104999997537;2434
573;1.7772215000004508;2434
574;1.7800005999997666;2435
575;1.78303699999924;2435
576;1.7862165000005916;2435
577;1.7891486000007717;2436
578;1.7921946000005846;2436
579;1.794909700000062;2436
580;1.7969305999995413;2436
581;1.8000697000006767;2437
582;1.8030471999991278;2437
583;1.8062604000006104;2438
584;1.8093052000003809;2438
585;1.8123840000007476;2439
586;1.8152425999996922;2439
587;1.818277799999123;2440
588;1.821274199999607;2440
589;1.8242573000006814;2441
590;1.8272742000008293;2441
591;1.8302413000001252;2441
592;1.8332049000000552;2442
593;1.8361994000006234;2442
594;1.8392053999996278;2443
595;1.8422468000007939;2444
596;1.8452440999990358;2444
597;1.8478142000003572;2444
598;1.851244299999962;2444
599;1.8542245999997249;2445
600;1.8572241000001668;2445
601;1.8602257000002282;2446
602;1.863214599999992;2446
603;1.8662261999998009;2446
604;1.869228600000497;2447
605;1.8719311000004382;2447
606;1.8752540000004956;2448
607;1.8782312000003003;2448
608;1.8808688999997685;2448
609;1.8842420999990281;2448
610;1.8872482999995555;2449
611;1.890243100000589;2449
612;1.8932430000004388;2449
613;1.896246300000712;2449
614;1.899224700000559;2450
615;1.9022320000003674;2450
616;1.9052733999997145;2450
617;1.908050000000003;2450
618;1.9112390999998752;2450
619;1.913980100000117;2451
620;1.9172476000003371;2451
621;1.9199312000000646;2451
622;1.923244199999317;2452
623;1.9262182999991637;2452
624;1.9292483999997785;2452
625;1.9322498999990785;2452
626;1.9349507999995694;2452
627;1.9369466000007378;2452
628;1.9399386999994022;2453
629;1.9430269000004046;2453
630;1.9465841000001092;2453
631;1.9495738000005076;2453
632;1.9535331999995833;2453
633;1.957515300000523;2453
634;1.9615162999998574;2453
635;1.9653349000000162;2453
636;1.9694006999998237;2453
637;1.9723114000007627;2453
638;1.975299100000484;2453
639;1.9783122000008007;2454
640;1.9810201000000234;2454
641;1.9841109000008146;2454
642;1.98711270000058;2453
643;1.9901176999992458;2453
644;1.9931797000008373;2453
645;1.9961342999995395;2454
646;1.9991540999999415;2454
647;2.0021355000008043;2453
648;2.005131899999469;2454
649;2.0081298999994033;2454
650;2.0111333999993803;2454
651;2.0138234999994893;2453
652;2.016913100000238;2454
653;2.0190808000006655;2454
654;2.0220847000000504;2454
655;2.025082199999815;2454
656;2.0280784999995376;2453
657;2.0308831999991526;2454
658;2.0340761999996175;2454
659;2.037081299999045;2454
660;2.0401044999998703;2454
661;2.0430718999996316;2454
662;2.0460961000007956;2454
663;2.0490936000005604;2454
664;2.0520895999998174;2453
665;2.05513289999908;2453
666;2.0581199999996898;2453
667;2.061141399999542;2453
668;2.0638961999993626;2453
669;2.0671344000002136;2453
670;2.070148299999346;2453
671;2.0731627000004664;2453
672;2.0760250000002998;2452
673;2.0791159000000334;2452
674;2.0821524000002682;2452
675;2.0851304000007076;2452
676;2.0881246000008105;2452
677;2.091114099999686;2451
678;2.094141600000512;2451
679;2.0971129999998084;2451
680;2.1001166999994894;2450
681;2.1031380999993416;2450
682;2.1061506000005465;2450
683;2.109240600000703;2450
684;2.1122333999992406;2450
685;2.115241800000149;2449
686;2.118222400000377;2449
687;2.1212336999997206;2449
688;2.1238671999999497;2449
689;2.126984700000321;2449
690;2.1299386999999115;2448
691;2.1329179000003933;2448
692;2.1350170000005164;2448
693;2.1385441000002174;2447
694;2.142551299999468;2446
695;2.146523800000068;2446
696;2.1507132000006095;2445
697;2.1545062999994116;2445
698;2.1590144999991026;2444
699;2.164093800000046;2443
700;2.1688844000000245;2443
701;2.1728213999995205;2443
702;2.176684199999727;2443
703;2.1806682999995246;2442
704;2.184732300000178;2442
705;2.1887160999995103;2441
706;2.192701699999816;2440
707;2.1966928000001644;2439
708;2.2007298000007722;2439
709;2.2047395999998116;2439
710;2.208707300000242;2438
711;2.2127168999995774;2438
712;2.2167167000006884;2438
713;2.2207476000003226;2437
714;2.2244627000000037;2437
715;2.2287015999991127;2436
716;2.232272400000511;2436
717;2.2357107999996515;2436
