;time;amplitude
0;0.005582499999945867;2437
1;0.01047399999879417;2435
2;0.015475299998797709;2433
3;0.020464799999899697;2432
4;0.02477819999876374;2431
5;0.030532999999195454;2430
6;0.0354840999989392;2428
7;0.039941999999427935;2427
8;0.04551129999890691;2425
9;0.05043659999864758;2424
10;0.055048899999746936;2422
11;0.059125799998582806;2421
12;0.06404079999992973;2420
13;0.06913579999854846;2418
14;0.07243589999961841;2416
15;0.07715619999908085;2415
16;0.08210449999933189;2413
17;0.08559839999907126;2412
18;0.08940919999986363;2412
19;0.09255399999892688;2410
20;0.09652879999885045;2409
21;0.09959869999875082;2408
22;0.10374039999987872;2407
23;0.10777689999849827;2406
24;0.11155589999907534;2405
25;0.11565329999939422;2405
26;0.11963229999855685;2403
27;0.12226629999895522;2402
28;0.12665969999943627;2401
29;0.12964659999852302;2400
30;0.13350979999995616;2399
31;0.13652809999985038;2398
32;0.13913099999990663;2398
33;0.14239449999877252;2397
34;0.14544069999828935;2396
35;0.14833699999871897;2395
36;0.15144869999858201;2395
37;0.15445059999910882;2394
38;0.1574025999998412;2393
39;0.16039869999985967;2392
40;0.16342319999967003;2391
41;0.16642719999981637;2390
42;0.1694374999988213;2390
43;0.17208199999913631;2389
44;0.17541259999961767;2388
45;0.17840049999904295;2387
46;0.1814375999983895;2387
47;0.18442719999984547;2385
48;0.18728569999984757;2384
49;0.19044929999836313;2384
50;0.19390949999979057;2383
51;0.19788779999908002;2383
52;0.20168479999847477;2382
53;0.20564219999869238;2381
54;0.20975479999833624;2380
55;0.21374419999847305;2379
56;0.21771549999903073;2378
57;0.22153649999927438;2378
58;0.22448089999852527;2377
59;0.22719799999867973;2377
60;0.2303753999985929;2376
61;0.2334285999986605;2375
62;0.23639799999909883;2375
63;0.23916129999997793;2374
64;0.24250739999843063;2373
65;0.24538029999894206;2372
66;0.24837829999887617;2372
67;0.2513788999985991;2371
68;0.25440399999934016;2370
69;0.25737739999931364;2370
70;0.2602153999996517;2369
71;0.2631818999998359;2368
72;0.2651237999998557;2368
73;0.26848789999894507;2368
74;0.27134989999831305;2367
75;0.2740617999988899;2366
76;0.2773953999985679;2366
77;0.2803604999990057;2365
78;0.28337199999987206;2365
79;0.28634319999946456;2364
80;0.28907779999826744;2363
81;0.292404699999679;2362
82;0.2953842999995686;2361
83;0.2983736999995017;2361
84;0.30137659999854804;2360
85;0.3043789999992441;2360
86;0.3072489999995014;2360
87;0.31034249999902386;2359
88;0.31332819999988715;2359
89;0.3163477999987663;2358
90;0.31933529999878374;2358
91;0.3220387999990635;2358
92;0.3243150999987847;2357
93;0.3273124999996071;2357
94;0.3303212999999232;2356
95;0.3333227999992232;2356
96;0.33630409999932454;2356
97;0.3390732999996544;2355
98;0.34234529999957886;2355
99;0.34535369999866816;2355
100;0.3483230999991065;2355
101;0.35138719999849855;2355
102;0.3543906999984756;2354
103;0.3573506999982783;2354
104;0.3603508999985934;2354
105;0.3633711999991647;2353
106;0.3663723999998183;2353
107;0.3693504999992001;2353
108;0.3719952999999805;2353
109;0.3753499999984342;2353
110;0.3783512999998493;2352
111;0.38135439999859955;2352
112;0.38417869999830145;2352
113;0.38735429999906046;2352
114;0.3904002999988734;2351
115;0.39337309999973513;2351
116;0.3963562999997521;2351
117;0.3993685999994341;2351
118;0.40237769999839657;2351
119;0.40529399999832094;2350
120;0.4083749999990687;2350
121;0.41135249999933876;2350
122;0.41436159999830124;2350
123;0.4171480999993946;2350
124;0.42032929999913904;2350
125;0.4233360999987781;2350
126;0.4263227999999799;2350
127;0.4293253999985609;2350
128;0.4323968999997305;2350
129;0.4353767999982665;2350
130;0.43835909999870637;2351
131;0.4413714999991498;2351
132;0.44438419999823964;2350
133;0.4473759999982576;2350
134;0.4503813999999693;2350
135;0.45338229999833857;2350
136;0.45635349999975006;2350
137;0.4593810999995185;2350
138;0.4622879999988072;2351
139;0.4653744999995979;2351
140;0.4683839999997872;2351
141;0.4713719999999739;2351
142;0.47438939999847207;2351
143;0.4773792999985744;2351
144;0.48039040000003297;2351
145;0.4833934999987832;2352
146;0.4863714999992226;2353
147;0.48906799999895156;2353
148;0.49237629999879573;2353
149;0.4958671999993385;2353
150;0.49958499999956985;2353
151;0.502427199999147;2353
152;0.5053697999992437;2353
153;0.5083939999985887;2353
154;0.511012999999366;2354
155;0.5132138999997551;2354
156;0.5168024999984482;2355
157;0.5205662999997003;2355
158;0.523267599999599;2356
159;0.5262697999987722;2356
160;0.5291197999995347;2357
161;0.5323452999982692;2357
162;0.5353827999988425;2357
163;0.5383019999990211;2357
164;0.5410972999998194;2358
165;0.5430764999982785;2358
166;0.5457407999983843;2358
167;0.5495189999983268;2359
168;0.5523610999989614;2359
169;0.5552675999988423;2359
170;0.5571912999985216;2359
171;0.5603794999988168;2359
172;0.5633733999984543;2359
173;0.5663803999996162;2360
174;0.5693744000000152;2360
175;0.5720113999996101;2360
176;0.5740013999984512;2360
177;0.5759896999988996;2360
178;0.5779817999991792;2360
179;0.5801403999994363;2361
180;0.5821400999993784;2361
181;0.5840952999988076;2361
182;0.587713499999154;2361
183;0.5905096999995294;2362
184;0.5934866999996302;2363
185;0.5963613999992958;2363
186;0.5994215999999142;2363
187;0.6023717999996734;2363
188;0.6050971999993635;2364
189;0.6070240999997623;2365
190;0.6091103999988263;2364
191;0.6109423999987484;2365
192;0.6129533999992418;2365
193;0.6149423999995633;2365
194;0.6171341999997821;2365
195;0.6190563000000111;2365
196;0.6209090999982436;2366
197;0.6229417999984435;2366
198;0.6249264999987645;2366
199;0.6269313999982842;2367
200;0.629003099998954;2367
201;0.6309767999991891;2368
202;0.6331966999987344;2368
203;0.6360017999995762;2368
204;0.6379697999982454;2369
205;0.6400598999989597;2369
206;0.6420565999997052;2369
207;0.6450394999992568;2370
208;0.6470448999989458;2371
209;0.6490383999989717;2372
210;0.6509969999988243;2372
211;0.6529740999994829;2372
212;0.6549440999988292;2372
213;0.6569877999991149;2373
214;0.6589908999994805;2373
215;0.660997299999508;2373
216;0.6629503999993176;2373
217;0.664990499999476;2373
218;0.6669915999991645;2374
219;0.6689844999982597;2374
220;0.670981599998413;2375
221;0.6730024999997113;2375
222;0.6749852999982977;2375
223;0.6769853999994666;2376
224;0.6789828999990277;2376
225;0.6809923999990133;2376
226;0.6829359999992448;2377
227;0.6849228999999468;2378
228;0.6870068999996874;2378
229;0.6889023999992787;2379
230;0.6909454999986337;2379
231;0.693016199998965;2380
232;0.6950374999996711;2380
233;0.6970144999995682;2381
234;0.698999799999001;2381
235;0.7010801999986143;2382
236;0.7030779999986407;2382
237;0.704986499998995;2382
238;0.7070515999985219;2383
239;0.7090463999993517;2383
240;0.7110633999982383;2384
241;0.7129031999993458;2384
242;0.7151894999988144;2384
243;0.7187243999997008;2385
244;0.7223031999983505;2386
245;0.7254679999987275;2387
246;0.7283241999994061;2387
247;0.7313579999990907;2388
248;0.7343883999983518;2389
249;0.7373652999995102;2390
250;0.7403869999998278;2390
251;0.7437127999983204;2391
252;0.7465923999989172;2392
253;0.750148299999637;2393
254;0.7535125999984302;2394
255;0.7562212999982876;2394
256;0.7593490999988717;2395
257;0.7623327999990579;2396
258;0.7655906999989384;2397
259;0.7694840999993176;2398
260;0.7720783999993728;2398
261;0.7753993999995146;2399
262;0.7783556999984285;2400
263;0.7813584999985324;2401
264;0.7843666999997367;2402
265;0.7873614999989513;2402
266;0.790393999999651;2404
267;0.7933614999983547;2405
268;0.7963657999989664;2405
269;0.799363899999662;2406
270;0.802359899998919;2407
271;0.8052317999990919;2408
272;0.8081662999993569;2408
273;0.8113750999982585;2409
274;0.8143703999994614;2410
275;0.8173627999985911;2411
276;0.8203610000000481;2412
277;0.8231397999988985;2412
278;0.8263563999989856;2413
279;0.8293595999984973;2414
280;0.8323667999993631;2415
281;0.8353742999988754;2416
282;0.838271699998586;2416
283;0.84134659999836;2417
284;0.8443573999993532;2418
285;0.8473602999983996;2419
286;0.8503602999990107;2420
287;0.8533609999994951;2421
288;0.8562007000000449;2422
289;0.8593104999999923;2423
290;0.862236999999368;2423
291;0.8653204999991431;2424
292;0.868322199999966;2425
293;0.8713911999984703;2426
294;0.8748647999982495;2427
295;0.8785774999996647;2429
296;0.8813593999984732;2430
297;0.8843544999999722;2431
298;0.886989699998594;2432
299;0.8891053999996075;2432
300;0.8923816999995324;2433
301;0.895360399999845;2434
302;0.8983617999983835;2434
303;0.9013482999998814;2435
304;0.904377699998804;2436
305;0.9073710999982723;2437
306;0.9103793999984191;2438
307;0.9133609999989858;2439
308;0.9163826999993034;2440
309;0.9193648000000394;2441
310;0.9220253999992565;2442
311;0.9253846999999951;2443
312;0.9283932999987883;2443
313;0.9313700999991852;2444
314;0.9343607999999222;2445
315;0.9373649999997724;2446
316;0.9403690999988612;2447
317;0.9433685999993031;2448
318;0.9463862999982666;2449
319;0.9490682999985438;2450
320;0.9523775999987265;2451
321;0.9552206999996997;2452
322;0.9583503999983805;2452
323;0.9613556999993307;2453
324;0.9640124999987165;2454
325;0.9670025999985228;2454
326;0.9692774999984977;2455
327;0.9719776999991154;2456
328;0.9741868999990402;2457
329;0.9773021999990306;2458
330;0.9801981999989948;2459
331;0.9832996999994066;2459
332;0.9862973999988753;2460
333;0.9890030999995361;2460
334;0.9923017999990407;2461
335;0.9953725999985181;2462
336;0.9983609999999317;2463
337;1.0013615999996546;2463
338;1.0043630999989546;2464
339;1.0073868999988917;2465
340;1.0103622999995423;2466
341;1.0133666999990965;2466
342;1.0163816999993287;2467
343;1.0193621999987954;2467
344;1.0219987999989826;2468
345;1.025377899999512;2469
346;1.028073499999664;2469
347;1.0306234999989101;2470
348;1.033593899999687;2471
349;1.0363179999985732;2472
350;1.0391612999992503;2473
351;1.0422822000000451;2474
352;1.0453542999985075;2475
353;1.0487561999998434;2476
354;1.052731899999344;2476
355;1.0562568999994255;2477
356;1.0593238999990717;2478
357;1.0623570999996446;2479
358;1.0653265999990253;2479
359;1.0683710999983305;2480
360;1.0713533999987703;2481
361;1.0741648999992321;2482
362;1.0771738999992522;2483
363;1.0792122999991989;2484
364;1.0822810999998183;2485
365;1.0853215999995882;2486
366;1.0882819999987987;2486
367;1.0913508999983605;2487
368;1.0943594000000303;2488
369;1.0973575999996683;2488
370;1.1003758999995625;2489
371;1.1033634999985225;2489
372;1.1059725999984948;2490
373;1.1083864999982325;2491
374;1.1113893999990978;2492
375;1.1143801999987772;2493
376;1.1173559999988356;2493
377;1.1203764999991108;2494
378;1.1233745999998064;2494
379;1.1263470999983838;2495
380;1.1293555999982345;2496
381;1.1323448999992252;2497
382;1.1353731999988668;2497
383;1.1382307999992918;2497
384;1.141380199998821;2498
385;1.1443493999995553;2498
386;1.147349499999109;2499
387;1.150361799998791;2500
388;1.1531799999993382;2500
389;1.1563560999984475;2500
390;1.1593849999990198;2501
391;1.16237639999963;2501
392;1.165354799999477;2502
393;1.1682581999994;2503
394;1.1713778999983333;2503
395;1.1743634999984351;2504
396;1.1773650999984966;2504
397;1.1803826999985176;2504
398;1.1833806999984517;2505
399;1.1862157999985357;2505
400;1.189188299998932;2505
401;1.1919115999990026;2506
402;1.1941449999994802;2506
403;1.196118199999546;2506
404;1.1992011999991519;2507
405;1.2023844999985158;2507
406;1.2051364999988436;2508
407;1.2083895999985543;2508
408;1.2113596999988658;2509
409;1.214372699998421;2509
410;1.2173685999987356;2510
411;1.2203638999999384;2510
412;1.2233865999987756;2509
413;1.2263595999993413;2510
414;1.229399399999238;2510
415;1.2323693999987881;2511
416;1.2353905999989365;2511
417;1.238253799998347;2511
418;1.241388399999778;2511
419;1.2443631999994977;2511
420;1.2470744999991439;2511
421;1.250379499999326;2512
422;1.2533653999998933;2512
423;1.2564039999997476;2512
424;1.2593508999998448;2513
425;1.2628229999991163;2513
426;1.265379499998744;2513
427;1.2683815999989747;2513
428;1.2713463000000047;2513
429;1.2744072999994387;2514
430;1.27738749999844;2514
431;1.2803991999990103;2514
432;1.2833550999985164;2515
433;1.2863484999998036;2515
434;1.2891952999998466;2514
435;1.2923834999983228;2514
436;1.2951817999983177;2514
437;1.298084199999721;2514
438;1.3013103999983286;2514
439;1.3043244999989838;2514
440;1.307332200000019;2514
441;1.310079399998358;2514
442;1.3133279999983642;2514
443;1.3163151999997353;2514
444;1.3193548999988707;2514
445;1.3220589999982622;2514
446;1.3242105999997875;2514
447;1.3272898999985046;2514
448;1.3303237999989506;2513
449;1.3333442999992258;2513
450;1.3363383999985672;2513
451;1.3391552999983105;2513
452;1.342333199998393;2513
453;1.3453276999989612;2512
454;1.3482826999988902;2512
455;1.3513276999983646;2512
456;1.3543165999999474;2512
457;1.35718469999847;2512
458;1.3603727999998227;2512
459;1.3633636999984446;2512
460;1.3663835999996081;2512
461;1.3693925999996281;2512
462;1.3720771999996941;2512
463;1.37537329999941;2512
464;1.378374599999006;2511
465;1.3813763999987714;2511
466;1.3844128999990062;2511
467;1.3873516999992717;2511
468;1.390169499998592;2511
469;1.393391999999949;2511
470;1.396395499999926;2510
471;1.3993860999999015;2510
472;1.4024038999996264;2510
473;1.4049225999988266;2509
474;1.4080827999987378;2509
475;1.4112805999993725;2509
476;1.4143410999986372;2509
477;1.4173395999987406;2508
478;1.4201879999982339;2508
479;1.4233749999984866;2508
480;1.4263958999999886;2507
481;1.4293897999996261;2507
482;1.4323727999999392;2506
483;1.4352778999982547;2506
484;1.4382878999986133;2505
485;1.4414037999995344;2505
486;1.444384499998705;2505
487;1.4474107999994885;2505
488;1.4504025999995065;2504
489;1.4534142999982578;2504
490;1.4563844999993307;2503
491;1.4593967999990127;2503
492;1.4623702999997477;2502
493;1.465387099999134;2502
494;1.4683758999999554;2501
495;1.4713264999991225;2501
496;1.474373099999866;2501
497;1.4773984999992535;2501
498;1.4803752999996505;2500
499;1.4833776999985275;2500
500;1.4863741999997728;2499
501;1.4891963999998552;2499
502;1.492377899998246;2499
503;1.4953849999983504;2499
504;1.4982013999997434;2498
505;1.5013999999991938;2498
506;1.5043923999983235;2497
507;1.5073755999983405;2496
508;1.5103843999986566;2495
509;1.5133933999986766;2495
510;1.5160094999991998;2494
511;1.5184162999994442;2493
512;1.5226287999994383;2493
513;1.5270676000000094;2492
514;1.5317472999995516;2492
515;1.5355100999986462;2491
516;1.5385029999997641;2491
517;1.5413138999992952;2490
518;1.5446224999996048;2489
519;1.5488634999983333;2489
520;1.5527984999989712;2488
521;1.5563352999997733;2487
522;1.5607743000000482;2486
523;1.5647599999992963;2485
524;1.5687622999994346;2484
525;1.5723498999996082;2483
526;1.5755618999992294;2482
527;1.5782530999986193;2481
528;1.5812967999991088;2481
529;1.5841836999989027;2480
530;1.587232399999266;2479
531;1.5906519999989541;2479
532;1.594877199999246;2478
533;1.5985854999998992;2477
534;1.6013046999996732;2476
535;1.6043992999984766;2476
536;1.6078322999983357;2475
537;1.6116543999996793;2473
538;1.6154853999996703;2472
539;1.618325499999628;2472
540;1.6213142999986303;2471
541;1.6241029999982857;2470
542;1.62612259999878;2470
543;1.629288699999961;2469
544;1.6322233999999298;2469
545;1.6352496999988944;2468
546;1.6382665999990422;2468
547;1.6413401999998314;2467
548;1.644385699999475;2466
549;1.6473825999983092;2465
550;1.6504000999993877;2464
551;1.653394599999956;2464
552;1.6563857999990432;2463
553;1.6593853999984276;2462
554;1.662387200000012;2461
555;1.6653748999997333;2460
556;1.6683783999997104;2459
557;1.671381599999222;2459
558;1.6743998999991163;2458
559;1.6773826999997254;2457
560;1.6803751999996166;2457
561;1.6833759999990434;2456
562;1.6860508999998274;2455
563;1.689217799999824;2455
564;1.692375799999354;2454
565;1.6953908999985288;2453
566;1.698391999998421;2452
567;1.7013800999993691;2451
568;1.704378499998711;2450
569;1.7073941999988165;2449
570;1.7103921999987506;2448
571;1.7133757999999943;2448
572;1.7163861999997607;2447
573;1.7193889999998646;2446
574;1.7236904999990657;2445
575;1.7280838999995467;2444
576;1.731692399998792;2443
577;1.7357297999988077;2442
578;1.7397251999991568;2441
579;1.7439267999998265;2440
580;1.7479078999986086;2439
581;1.7516471999988426;2438
582;1.7554690999986633;2436
583;1.7585736999990331;2435
584;1.762459300000046;2434
585;1.766501199999766;2433
586;1.7694447999983822;2432
587;1.7720319999989442;2431
588;1.7753700999983266;2430
589;1.7783964999998716;2430
590;1.781397199998537;2429
591;1.7843686999985948;2428
592;1.7873738999987836;2427
593;1.79031489999943;2426
594;1.7933958999983588;2425
595;1.7963423999990482;2424
596;1.7993705999997474;2423
597;1.8023701999991317;2422
598;1.8049299999984214;2421
599;1.8083783999991283;2420
600;1.8114070999999967;2419
601;1.8143685999984882;2418
602;1.817371799999819;2417
603;1.8203791999985697;2416
604;1.8233711999982916;2415
605;1.8263757999993686;2414
606;1.8293858999986696;2414
607;1.8323974999984785;2413
608;1.8353786999996373;2412
609;1.8383133999996062;2411
610;1.8414020000000164;2410
611;1.8442241999982798;2410
612;1.8471817999998166;2408
613;1.850384599998506;2407
614;1.8533828999989055;2406
615;1.8563779999985854;2406
616;1.8592869999993127;2405
617;1.8623964999987948;2404
618;1.865398499998264;2404
619;1.8683833999984927;2403
620;1.8713077999982488;2403
621;1.8744913999998971;2402
622;1.8774028999996517;2401
623;1.8803751999985252;2400
624;1.8833756999993057;2399
625;1.8863956999994116;2397
626;1.8892313999986072;2397
627;1.8921860999998898;2396
628;1.895887299999231;2396
629;1.899577499998486;2394
630;1.9023838999983127;2393
631;1.9051158999991458;2392
632;1.9083863999985624;2392
633;1.9113890999997238;2391
634;1.9143737999984296;2390
635;1.9173770999987028;2389
636;1.9203760999989754;2388
637;1.923379699999714;2388
638;1.9263848999999027;2386
639;1.9294045999995433;2385
640;1.9323970999994344;2385
641;1.935409299998355;2384
642;1.938299099998403;2383
643;1.9414053000000422;2382
644;1.944389799999044;2381
645;1.9473788999985118;2381
646;1.9503862999990815;2380
647;1.9531922999995004;2379
648;1.9551009999995586;2379
649;1.957294699999693;2379
650;1.9603601999988314;2379
651;1.963323499998296;2377
652;1.9663405999999668;2376
653;1.968994399998337;2376
654;1.9720978999994259;2375
655;1.9753873999998177;2374
656;1.9783809000000474;2373
657;1.9813821999996435;2373
658;1.9843373999992764;2372
659;1.9874546999999438;2372
660;1.9904042999987723;2371
661;1.993378599998323;2370
662;1.9964060999991489;2369
663;1.999393099998997;2369
664;2.002384699999311;2368
665;2.0050539999992907;2367
666;2.0084133000000293;2367
667;2.011401299998397;2366
668;2.0144114999984595;2366
669;2.01739329999873;2365
670;2.020397199999934;2364
671;2.0234163999994053;2364
672;2.026398899999549;2363
673;2.029390699999567;2362
674;2.0322307999995246;2362
675;2.035416400000031;2362
676;2.0382863999984693;2362
677;2.0414115999992646;2361
678;2.044376799998645;2361
679;2.0473363999990397;2360
680;2.050409399998898;2360
681;2.053389499998957;2360
682;2.0563910999990185;2360
683;2.0593850999994174;2359
684;2.0624016999991;2359
685;2.065220999998928;2358
686;2.068338599998242;2358
687;2.071963999998843;2357
688;2.07591709999906;2357
689;2.079302199999802;2356
690;2.0825482999989617;2356
691;2.0853632999987894;2355
692;2.088233599999512;2355
693;2.091065399999934;2355
694;2.0943712999996933;2354
695;2.0973591999991186;2354
696;2.100400899998931;2354
697;2.1033824999994977;2353
698;2.1064061999986734;2353
699;2.109383600000001;2353
700;2.112221399998816;2352
701;2.115431599999283;2352
702;2.1183905999987473;2352
703;2.1213279999992665;2352
704;2.1244427999990876;2352
705;2.1273887999996077;2351
706;2.1304126999984874;2351
707;2.133412599998337;2351
708;2.1364123999992444;2351
709;2.13940569999977;2350
710;2.141994799998429;2350
711;2.1454125000000204;2350
712;2.1483892999985983;2350
713;2.151424899999256;2350
714;2.154411199999231;2350
715;2.157438499998534;2350
716;2.1604413999993994;2351
717;2.1633877999993274;2351
