;time;amplitude
0;0.005343600001651794;2453
1;0.010076300000946503;2453
2;0.015295300001525902;2453
3;0.02027780000025814;2453
4;0.02529100000174367;2453
5;0.029695900000660913;2453
6;0.03430990000015299;2452
7;0.03876900000068417;2452
8;0.042748700001538964;2452
9;0.04658660000131931;2452
10;0.051081000001431676;2452
11;0.05607920000147715;2453
12;0.06108880000101635;2452
13;0.06489000000146916;2452
14;0.0688004000003275;2452
15;0.0729791000012483;2452
16;0.07656020000104036;2452
17;0.08112550000078045;2451
18;0.08569950000128301;2451
19;0.08951260000139882;2451
20;0.09404859999995097;2451
21;0.09912330000042857;2451
22;0.10289660000125878;2451
23;0.10812080000141577;2452
24;0.11249880000104895;2451
25;0.11659860000145272;2451
26;0.1210917000007612;2451
27;0.12604660000033618;2451
28;0.13107550000131596;2451
29;0.13607150000098045;2450
30;0.14104870000119263;2450
31;0.14548970000032568;2449
32;0.15008470000066154;2449
33;0.15503700000044773;2449
34;0.15861820000100124;2448
35;0.16265180000118562;2447
36;0.16711020000002463;2447
37;0.17090170000119542;2447
38;0.17506170000160637;2446
39;0.1785029000002396;2446
40;0.18183920000046783;2445
41;0.18605340000067372;2445
42;0.19110120000004827;2444
43;0.19547010000133014;2443
44;0.198606000001746;2443
45;0.20141380000131903;2443
46;0.20430560000022524;2443
47;0.20744610000110697;2443
48;0.21023820000118576;2442
49;0.21317790000102832;2442
50;0.21645880000141915;2442
51;0.21943760000067414;2441
52;0.22245910000128788;2441
53;0.2254320000010921;2441
54;0.2280813000015769;2441
55;0.23146160000032978;2441
56;0.23445910000009462;2440
57;0.23746120000032533;2440
58;0.24047300000165706;2440
59;0.2435209000013856;2440
60;0.24819400000160385;2439
61;0.25322870000127295;2439
62;0.2575652000014088;2438
63;0.261909700000615;2438
64;0.2672779000004084;2437
65;0.27214960000128485;2437
66;0.277165800000148;2435
67;0.28221530000155326;2435
68;0.28691560000152094;2434
69;0.29218260000016016;2434
70;0.29654630000004545;2433
71;0.3009410000013304;2432
72;0.3044772000012017;2431
73;0.3073160000003554;2431
74;0.3104006000012305;2431
75;0.31387500000164437;2430
76;0.31783200000063516;2430
77;0.3213537000010547;2429
78;0.324759000000995;2428
79;0.32844610000029206;2428
80;0.3328086000001349;2427
81;0.33623550000083924;2427
82;0.33986650000042573;2426
83;0.3438428000008571;2426
84;0.34792280000147;2426
85;0.35174990000086837;2425
86;0.355831600001693;2424
87;0.35981290000017907;2423
88;0.3638270999999804;2423
89;0.3674213000012969;2422
90;0.37077750000025844;2422
91;0.37481079999997746;2421
92;0.3785007000005862;2420
93;0.3828841000013199;2420
94;0.38688830000137386;2419
95;0.39084600000023784;2418
96;0.3945993000015733;2418
97;0.3992634000005637;2418
98;0.40276510000148846;2417
99;0.40681100000074366;2416
100;0.41097090000039316;2416
101;0.4147874000009324;2415
102;0.4185737000007066;2414
103;0.42150930000025255;2414
104;0.4258408000005147;2413
105;0.4297900000001391;2413
106;0.43378370000027644;2413
107;0.43780730000071344;2412
108;0.44182090000140306;2412
109;0.44536560000051395;2411
110;0.44877480000104697;2411
111;0.45280320000165375;2411
112;0.4568799000007857;2411
113;0.4609052000014344;2410
114;0.46432590000040364;2410
115;0.4673279000016919;2409
116;0.4707659000014246;2409
117;0.47466740000163554;2408
118;0.47824170000058075;2408
119;0.4816482000005635;2407
120;0.48575700000037614;2407
121;0.4897392000002583;2407
122;0.49323260000164737;2407
123;0.49671610000041255;2406
124;0.5007180000011431;2406
125;0.5045551000002888;2406
126;0.5087806999999884;2405
127;0.5127185000001191;2405
128;0.516753100000642;2405
129;0.520736600001328;2405
130;0.5246402000011585;2404
131;0.5275967000015953;2404
132;0.5306905000015831;2404
133;0.5345094000003883;2404
134;0.537467000000106;2403
135;0.5403673000000708;2403
136;0.5435341000011249;2403
137;0.5464775000000373;2403
138;0.5494297000004735;2403
139;0.5524515000015526;2403
140;0.5552990000014688;2403
141;0.5582847000005131;2403
142;0.5611897000017052;2403
143;0.5642596000016056;2403
144;0.5672670000003563;2403
145;0.5705236000012519;2403
146;0.5752031000010902;2403
147;0.5796282999999676;2403
148;0.5840979000004154;2402
149;0.5891386000002967;2402
150;0.5940640000007988;2402
151;0.5977350000011938;2402
152;0.6021973000006255;2402
153;0.6072244000006322;2401
154;0.6116468000000168;2402
155;0.6161793000010221;2402
156;0.6206431000009616;2402
157;0.6251844000016717;2402
158;0.6296224000016082;2402
159;0.6339424000016152;2402
160;0.6372354000013729;2402
161;0.6402438000004622;2403
162;0.6434444000005897;2403
163;0.646440900000016;2403
164;0.6494394000001193;2403
165;0.6524404000010691;2403
166;0.6555032000014762;2404
167;0.6584833000015351;2404
168;0.6611621000010928;2404
169;0.6644707000014023;2405
170;0.6674637000014627;2405
171;0.6704622000015661;2405
172;0.6735026000005746;2406
173;0.6774717000007513;2406
174;0.6804703000016161;2407
175;0.6834600000001956;2407
176;0.6864708000011888;2406
177;0.6894703000016307;2407
178;0.692462400000295;2407
179;0.6953133000006346;2407
180;0.6982309000013629;2408
181;0.7012240000003658;2408
182;0.7048242000000755;2408
183;0.7088213000006363;2408
184;0.712691900000209;2409
185;0.7166704000010213;2409
186;0.720706700001756;2409
187;0.7247490000008838;2410
188;0.7281044000010297;2410
189;0.7315031000016461;2410
190;0.7344921000003524;2410
191;0.7374048000001494;2411
192;0.7405167000015354;2411
193;0.7435304000009637;2411
194;0.7461674000005587;2411
195;0.749051300001156;2412
196;0.7522514000011142;2412
197;0.7552402000001166;2412
198;0.758867000000464;2413
199;0.7620909000015672;2413
200;0.7641413000001194;2413
201;0.7664016000017;2414
202;0.7691848000013124;2414
203;0.7722116000004462;2414
204;0.7742076000013185;2414
205;0.7772143000001961;2415
206;0.7802331000002596;2415
207;0.7837291000014375;2415
208;0.7877840000001015;2415
209;0.7918234000007942;2416
210;0.795681900001;2416
211;0.7983281000015268;2416
212;0.8014606000015192;2417
213;0.8044913000012457;2418
214;0.8075910000006843;2418
215;0.8102910000015981;2418
216;0.8134488000014244;2418
217;0.8164520000009361;2418
218;0.8194435000004887;2419
219;0.8224467000000004;2419
220;0.8252412000001641;2420
221;0.8280601000005845;2420
222;0.8312340000011318;2420
223;0.8348199000010936;2421
224;0.8388281000006828;2421
225;0.8416650000017398;2422
226;0.8456905000002735;2422
227;0.8495100000000093;2423
228;0.8524651000006997;2423
229;0.855078800001138;2423
230;0.8580336000013631;2424
231;0.8600187000010919;2424
232;0.8620039000015822;2424
233;0.8640272000011464;2424
234;0.867164799999955;2425
235;0.8691526000002341;2425
236;0.8711556000016571;2426
237;0.8742326000010507;2426
238;0.8778291000016907;2426
239;0.8807381000005989;2426
240;0.8847062000004371;2427
241;0.8887360000007902;2427
242;0.8926946999999927;2428
243;0.8967269000004308;2428
244;0.9007061000011163;2429
245;0.9046981000010419;2429
246;0.9086885000015172;2430
247;0.9127044000015303;2430
248;0.9167199000003166;2430
249;0.920684100001381;2431
250;0.9247056000003795;2432
251;0.928168900001765;2433
252;0.931447200000548;2433
253;0.9344120000005205;2433
254;0.9372969000014564;2434
255;0.9402664000008372;2434
256;0.9432654000011098;2434
257;0.9462576000005356;2434
258;0.9490566000004037;2435
259;0.9522323000001052;2435
260;0.9552317000016046;2436
261;0.958846800000174;2437
262;0.9626037000016368;2438
263;0.966726300001028;2438
264;0.9701641999999993;2439
265;0.9734057000005123;2439
266;0.9764460000005784;2440
267;0.9794679000005999;2440
268;0.9825967000015225;2441
269;0.986752400000114;2442
270;0.9907043000002886;2442
271;0.9944513000009465;2442
272;0.9992273000007117;2443
273;1.0041917000016838;2443
274;1.0090207000012015;2444
275;1.0137564000015118;2445
276;1.017691000000923;2445
277;1.0217023000004701;2446
278;1.025471100001596;2446
279;1.0282475000003615;2447
280;1.031329800000094;2447
281;1.0341134000009333;2447
282;1.0378258000000642;2447
283;1.0418283000017254;2447
284;1.044112400000813;2448
285;1.0477951000011672;2448
286;1.0517863000004581;2448
287;1.0557306000009703;2448
288;1.0591947000011714;2448
289;1.0626811000001908;2449
290;1.0664839000000939;2449
291;1.0694567000009556;2449
292;1.0724544000004244;2449
293;1.075145100001464;2450
294;1.0769864000012603;2450
295;1.079148200000418;2450
296;1.0822217000004457;2450
297;1.0857755000015459;2451
298;1.089703900001041;2451
299;1.0937341000008018;2451
300;1.0966836000006879;2451
301;1.100501400000212;2451
302;1.1034889000002295;2451
303;1.106510800000251;2451
304;1.1095701000012923;2452
305;1.112231700000848;2452
306;1.1154683000004297;2452
307;1.1184530000009545;2452
308;1.1214546999999584;2452
309;1.1244900000001508;2453
310;1.1273955000015121;2453
311;1.130456900000354;2453
312;1.1334655000009661;2453
313;1.136468100001366;2453
314;1.1392625000007683;2453
315;1.1422667000006186;2453
316;1.1453186000017013;2453
317;1.1482702000012068;2453
318;1.1512651000011829;2453
319;1.1542989000008674;2453
320;1.1577669000016613;2453
321;1.161322600000858;2453
322;1.165837200000169;2453
323;1.169702099999995;2454
324;1.1737186000009387;2453
325;1.177571000000171;2453
326;1.1806310000010853;2453
327;1.1836204999999609;2452
328;1.1860587000010128;2452
329;1.1880825000007462;2452
330;1.1901735000010376;2452
331;1.1931878000013967;2452
332;1.1951806000015495;2453
333;1.1981969000007666;2452
334;1.2017471000017395;2452
335;1.205716600001324;2452
336;1.2097229000009975;2452
337;1.2126967000003788;2452
338;1.2162241000005451;2451
339;1.2196995000012976;2451
340;1.2237196000005497;2451
341;1.2276271000009729;2451
342;1.231175600001734;2451
343;1.234668300001431;2450
344;1.23872190000111;2450
345;1.2427163000011205;2449
346;1.2466363000003184;2449
347;1.2496327000008023;2449
348;1.2537141000011616;2449
349;1.2577256000004127;2449
350;1.26125520000096;2449
351;1.264400600000954;2449
352;1.2676404000012553;2448
353;1.2703510999999708;2448
354;1.273503600001277;2448
355;1.2765042000009998;2448
356;1.2793889000004128;2447
357;1.282423300001028;2447
358;1.2854166000015539;2447
359;1.2882320000007894;2447
360;1.290236000000732;2447
361;1.2932098000001133;2446
362;1.2959992000014608;2446
363;1.2980360000001383;2446
364;1.3002470999999787;2446
365;1.3032247000010102;2446
366;1.30679980000059;2445
367;1.3108636000015395;2445
368;1.3136785000006057;2445
369;1.3178082000013092;2445
370;1.321679700000459;2444
371;1.3252150000007532;2444
372;1.3281247000013536;2443
373;1.3314462000016647;2442
374;1.3344309000003705;2442
375;1.3374361000005592;2441
376;1.3404007000008278;2441
377;1.3432627000001958;2441
378;1.3462651000008918;2440
379;1.3494798000010633;2440
380;1.352464500001588;2440
381;1.3554719000003388;2439
382;1.3584835000001476;2438
383;1.3611681000002136;2438
384;1.364270200001556;2438
385;1.3672619000008126;2438
386;1.3702654000007897;2437
387;1.3732323000003817;2437
388;1.376599700000952;2436
389;1.379569700000502;2436
390;1.3836939000011625;2436
391;1.3876560000007885;2435
392;1.391601700001047;2435
393;1.3941579000002093;2434
394;1.3975365000005695;2434
395;1.4003827000015008;2433
396;1.4033580000013899;2433
397;1.4061435000003257;2433
398;1.409200600000986;2432
399;1.4122044000014284;2432
400;1.415639300001203;2431
401;1.4192924000017229;2431
402;1.422540100000333;2430
403;1.425567800000863;2430
404;1.4296133000007103;2430
405;1.4325660000013158;2430
406;1.4366303000006155;2429
407;1.440572900000916;2429
408;1.4442434000011417;2428
409;1.4476087000002735;2428
410;1.4513990000014019;2427
411;1.454339700001583;2427
412;1.4572450000014214;2426
413;1.4602538000017375;2426
414;1.4633391000006668;2426
415;1.4662170999999944;2425
416;1.4693583000007493;2424
417;1.472253300000375;2424
418;1.475215800001024;2424
419;1.477400800000396;2423
420;1.4806252000016684;2423
421;1.4846794000004593;2422
422;1.4886975000008533;2421
423;1.4925989000003028;2421
424;1.496615500000189;2420
425;1.4995527000010043;2419
426;1.5024145000006683;2419
427;1.5053854000016145;2419
428;1.5083878000004916;2418
429;1.5112891000007949;2418
430;1.514115900001343;2418
431;1.5162320000017644;2417
432;1.5180233000010048;2417
433;1.5202106000015192;2417
434;1.5232218000001012;2416
435;1.526850900001591;2416
436;1.5291596000006393;2415
437;1.532674300000508;2415
438;1.5365263000003324;2414
439;1.540521600001739;2414
440;1.5442676000002393;2414
441;1.5476675000008981;2413
442;1.5517150000014226;2413
443;1.5557145000002492;2413
444;1.559696600001189;2413
445;1.562266200000522;2412
446;1.565107900001749;2412
447;1.5670982000010554;2412
448;1.5690267000009044;2412
449;1.5709973000011814;2411
450;1.5730479000012565;2411
451;1.575017500001195;2411
452;1.5769946000000346;2411
453;1.5792371000006824;2411
454;1.5811800999999832;2410
455;1.5831864000010683;2410
456;1.5861696000010852;2410
457;1.5892093000002205;2409
458;1.5922991000006732;2409
459;1.5955657000013161;2408
460;1.598642300001302;2408
461;1.6024943000011262;2408
462;1.605482100001609;2408
463;1.6082063000012567;2407
464;1.6110359000012977;2407
465;1.6132291000012629;2407
466;1.6162440000007336;2407
467;1.619294699999955;2407
468;1.6222438000004331;2407
469;1.625540600000022;2407
470;1.6283861000010802;2406
471;1.631493100001535;2406
472;1.6344493000015063;2406
473;1.637246000000232;2406
474;1.6400382000010723;2406
475;1.6432668000015838;2405
476;1.646854100001292;2405
477;1.6508214000004955;2404
478;1.654747700000371;2405
479;1.6586780000016006;2404
480;1.6627084000010655;2404
481;1.6667435000017576;2405
482;1.670534700000644;2404
483;1.6747334000010596;2404
484;1.678479400001379;2404
485;1.681512200000725;2404
486;1.6844960000016727;2403
487;1.688512200000332;2403
488;1.6914958000015758;2403
489;1.6941889000008814;2403
490;1.6974225000012666;2403
491;1.7004291000012017;2403
492;1.7034226000014314;2403
493;1.7064496000002691;2403
494;1.7094443000005413;2403
495;1.7124828000014531;2403
496;1.7154757000007521;2403
497;1.7184715000003052;2403
498;1.7214490000005753;2403
499;1.72445130000051;2403
500;1.7273156000010204;2403
501;1.7304842000012286;2403
502;1.7333423000000039;2403
503;1.7361412000009295;2403
504;1.7380929000009928;2403
505;1.7401771000004373;2403
506;1.7422150000002148;2403
507;1.7452252000002773;2403
508;1.748775800000658;2403
509;1.7527293000002828;2404
510;1.756672700001218;2404
511;1.760749200000646;2404
512;1.763699800001632;2404
513;1.7661036000008608;2404
514;1.768060800000967;2405
515;1.771074200001749;2405
516;1.7732179000013275;2405
517;1.7762450000009267;2405
518;1.7781442000014067;2405
519;1.7812012000013056;2405
520;1.7831328000011126;2405
521;1.785153500000888;2405
522;1.7871171000006143;2405
523;1.790100900001562;2406
524;1.7925743000014336;2406
525;1.7951749000003474;2406
526;1.7985531000012998;2406
527;1.8014083000016399;2406
528;1.8043925000001764;2406
529;1.8074105000014242;2407
530;1.8105114000009053;2407
531;1.8133164000009856;2407
532;1.8166061000010814;2407
533;1.8206223000015598;2408
534;1.8246655000002647;2408
535;1.8287692000012612;2408
536;1.8330349000007118;2408
537;1.8381438000014896;2408
538;1.842828400000144;2409
539;1.8463808000014978;2410
540;1.8493284000014683;2410
541;1.852343300000939;2411
542;1.8554199000009248;2411
543;1.8582329000000755;2412
544;1.86125500000162;2412
545;1.8643684000016947;2413
546;1.8673610000005283;2413
547;1.8703940000013972;2414
548;1.873519100001431;2414
549;1.8762813000012102;2414
550;1.8792136000010942;2414
551;1.882241500001328;2415
552;1.8854758000015863;2415
553;1.8884199000003719;2415
554;1.891452500000014;2416
555;1.8942221000015707;2416
556;1.8974755000017467;2416
557;1.9004781000003277;2417
558;1.9034778000004735;2417
559;1.9064691000003222;2417
560;1.9094731000004685;2418
561;1.9124805000010383;2418
562;1.9154708000005485;2418
563;1.9184715999999753;2418
564;1.9211902000006376;2418
565;1.9242920000015147;2419
566;1.927277700000559;2419
567;1.931863499999963;2420
568;1.9358385000014096;2420
569;1.9387263000007806;2420
570;1.9425366000014037;2421
571;1.9455205000012938;2421
572;1.9495414000011806;2422
573;1.9524691000005987;2422
574;1.955266800001482;2422
575;1.9581465999999637;2423
576;1.9601433000007091;2423
577;1.9630094000003737;2423
578;1.9650983000010456;2423
579;1.9672178000000713;2424
580;1.9692475000010745;2424
581;1.9722532000014326;2425
582;1.9758687000012287;2425
583;1.9796304999999847;2425
584;1.9839112000008754;2426
585;1.9877252000005683;2427
586;1.9917457999999897;2427
587;1.9957035000006726;2428
588;1.999731600000814;2428
589;2.0037291000007826;2429
590;2.0077134000002843;2429
591;2.011219500000152;2430
592;2.014498400001685;2431
593;2.017521500001749;2431
594;2.0205090000017663;2432
595;2.0235538000015367;2433
596;2.0265487000015128;2433
597;2.029492100000425;2433
598;2.032484100000147;2434
599;2.035487800001647;2434
600;2.0385053000009066;2435
601;2.0412928000005195;2435
602;2.0442467000011675;2435
603;2.0472612000012305;2435
604;2.050860000001194;2436
605;2.0548732000006567;2436
606;2.0587436000005255;2436
607;2.0623498000004474;2437
608;2.065501900000527;2437
609;2.0684624000004987;2438
610;2.0714436000016576;2438
611;2.074447599999985;2439
612;2.0772152000008646;2439
613;2.0804747000001953;2439
614;2.083481000001484;2439
615;2.0864714000017557;2439
616;2.08946940000169;2439
617;2.0924761000005674;2440
618;2.0954457000007096;2440
619;2.098470400000224;2440
620;2.1014756000004127;2441
621;2.1044768000010663;2441
622;2.107474500000535;2441
623;2.110467800001061;2442
624;2.1134662000004028;2443
625;2.1164720000015222;2443
626;2.119469900000695;2444
627;2.122471000000587;2444
628;2.125302100001136;2445
629;2.128266200001235;2445
630;2.131866900001114;2446
631;2.135873700000957;2446
632;2.1397236000011617;2447
633;2.142741000001479;2447
634;2.1456913000001805;2447
635;2.1497325000000274;2448
636;2.1537240000016027;2448
637;2.15769900000123;2449
638;2.1612559000004694;2449
639;2.1644503000006807;2450
640;2.1674392000004445;2450
641;2.1703373000000283;2450
642;2.173085500000525;2451
643;2.1751069000001735;2451
644;2.1771392000009655;2451
645;2.1792693000006693;2451
646;2.1822598000017024;2451
647;2.185257700000875;2451
648;2.1880762000000686;2451
649;2.190254900000582;2451
650;2.193934500000978;2451
651;2.1977936000002956;2451
652;2.2017396000010194;2452
653;2.2057409000008192;2452
654;2.209736000000703;2453
655;2.2127281000011862;2453
656;2.2167420000005222;2453
657;2.220189300000129;2453
658;2.223724299999958;2452
659;2.227360300001237;2452
660;2.2307127000003675;2453
661;2.2349673000007897;2453
662;2.2387032000006;2453
663;2.242743900000278;2453
664;2.2457083000008424;2453
665;2.2497426000009;2453
666;2.252727800001594;2453
667;2.256714800001646;2453
668;2.2606993000008515;2453
669;2.263719200000196;2453
670;2.267746800000168;2454
671;2.271756900001492;2453
672;2.2757610000007844;2454
673;2.2797637000003306;2454
674;2.283280300000115;2453
675;2.2861030000003666;2453
676;2.2892382000009093;2453
677;2.2922371000004205;2453
678;2.2955167000000074;2453
679;2.2992704000007507;2453
680;2.3021235000014713;2453
681;2.30413370000133;2453
682;2.3061385000000882;2453
683;2.3081021000016335;2452
684;2.3101040000001376;2453
685;2.3131141000012576;2452
686;2.3161175000004732;2452
687;2.3181501000017306;2452
688;2.3201478000009956;2452
689;2.3224844000014855;2452
690;2.3254365000011603;2452
691;2.3283245000002353;2452
692;2.331471600000441;2452
693;2.3344563000009657;2452
694;2.337239000000409;2451
695;2.3392126000017015;2451
696;2.3422103000011703;2451
697;2.345260200001576;2451
698;2.3482636000007915;2451
699;2.3512680000003456;2451
700;2.354859500001112;2450
701;2.358865900001547;2450
702;2.3627339000013308;2450
703;2.366747900001428;2449
704;2.3707237000016903;2449
705;2.3747533000005205;2449
706;2.3786971000008634;2449
707;2.3826746000013372;2449
708;2.3856618000008893;2448
709;2.3885121000002982;2448
710;2.3914930000009917;2448
711;2.3941275000015594;2448
712;2.3971473000001424;2448
713;2.400610400000005;2447
714;2.4048382000000856;2447
715;2.408689800000502;2447
716;2.412706100001742;2446
717;2.4173085000002175;2446
718;2.4220706000014616;2445
719;2.4274583000005805;2444
