;time;amplitude
0;0.005307499999616994;2522
1;0.009964499999114196;2522
2;0.015425100000356906;2522
3;0.02034809999895515;2523
4;0.025394099999175523;2522
5;0.030370500000572065;2522
6;0.035243099999206606;2521
7;0.04001989999960642;2521
8;0.0448378999990382;2521
9;0.049619899999015615;2521
10;0.05348509999930684;2520
11;0.05682890000025509;2520
12;0.06045850000009523;2520
13;0.06465919999936887;2519
14;0.06876699999884295;2519
15;0.07275139999910607;2518
16;0.07643049999933282;2518
17;0.08079480000014883;2518
18;0.08474089999981516;2518
19;0.08876119999877119;2518
20;0.09272729999975127;2517
21;0.09675679999963904;2517
22;0.10076119999939692;2517
23;0.10475360000054934;2516
24;0.10874019999937445;2517
25;0.11278029999994033;2516
26;0.11676839999927324;2516
27;0.12075779999941005;2516
28;0.12475400000039372;2516
29;0.12875669999993988;2515
30;0.13275760000033188;2515
31;0.13675469999907364;2514
32;0.14074129999971774;2515
33;0.14458139999987907;2515
34;0.14862519999951473;2514
35;0.15260889999990468;2514
36;0.15677109999887762;2513
37;0.16027329999997164;2512
38;0.16414520000034827;2511
39;0.167299799999455;2511
40;0.1701532999995834;2511
41;0.17335710000043036;2510
42;0.17611129999932018;2510
43;0.1794064999994589;2509
44;0.18236939999951574;2508
45;0.18530079999982263;2508
46;0.18818370000008144;2507
47;0.19141420000050857;2507
48;0.19446229999994102;2507
49;0.19743469999957597;2506
50;0.20041219999984605;2506
51;0.2034640000001673;2506
52;0.20645080000031157;2505
53;0.2092728999996325;2504
54;0.21240729999954056;2503
55;0.21542709999994258;2503
56;0.21843470000021625;2502
57;0.22141519999968295;2502
58;0.22445580000021437;2501
59;0.22742639999887615;2501
60;0.23042869999881077;2500
61;0.2334313999999722;2500
62;0.23633159999917552;2500
63;0.23948869999912858;2499
64;0.24238119999972696;2498
65;0.24542709999877843;2498
66;0.24841860000015004;2497
67;0.2511402000000089;2497
68;0.25444969999989553;2497
69;0.2574129000004177;2496
70;0.26046599999972386;2495
71;0.26343180000003485;2495
72;0.266451399998914;2494
73;0.26920219999919937;2493
74;0.2724553999996715;2492
75;0.2754224999989674;2491
76;0.27843639999991865;2490
77;0.28144849999989674;2490
78;0.2844454999994923;2489
79;0.2874183999992965;2489
80;0.2904385000001639;2488
81;0.29320539999935136;2488
82;0.29642839999905846;2487
83;0.2994251999989501;2486
84;0.3024243999989267;2486
85;0.30542719999903056;2485
86;0.30846500000006927;2485
87;0.31143189999966125;2484
88;0.3142707999995764;2483
89;0.3174701999996614;2482
90;0.3204134999996313;2481
91;0.32341079999969224;2481
92;0.32615309999891906;2480
93;0.3294925999998668;2480
94;0.3322342999999819;2479
95;0.3353028000001359;2478
96;0.3384482000001299;2478
97;0.341457000000446;2477
98;0.3444292999993195;2476
99;0.34719790000053763;2476
100;0.3502595999998448;2475
101;0.3534361000001809;2474
102;0.356401699998969;2473
103;0.3591298999999708;2473
104;0.3624257999999827;2472
105;0.3654389999992418;2471
106;0.36842909999904805;2470
107;0.37141169999995327;2469
108;0.3744318999997631;2469
109;0.3773051999996824;2468
110;0.3802197000004526;2467
111;0.383421399999861;2466
112;0.3864603000001807;2465
113;0.3894263000001956;2465
114;0.39220879999993485;2464
115;0.3954627999992226;2463
116;0.39843389999987266;2462
117;0.4014257999988331;2461
118;0.4044549999998708;2461
119;0.4074077000004763;2459
120;0.4102748999994219;2458
121;0.41342079999958514;2458
122;0.4164557000003697;2457
123;0.41943279999941296;2456
124;0.4224202999994304;2455
125;0.4254304999994929;2454
126;0.42841950000001816;2454
127;0.431426699999065;2453
128;0.4344640999988769;2452
129;0.4374236999992718;2451
130;0.44028140000045823;2450
131;0.44321209999907296;2449
132;0.446451399999205;2448
133;0.44941970000036235;2447
134;0.45246620000034454;2446
135;0.455136799999309;2445
136;0.45842350000020815;2445
137;0.46142150000014226;2444
138;0.46443360000012035;2443
139;0.4674369000003935;2442
140;0.4704029000004084;2441
141;0.4734585000005609;2439
142;0.476186099998813;2438
143;0.4794358999988617;2437
144;0.4824196999998094;2436
145;0.4854283000004216;2435
146;0.4884820999996009;2434
147;0.49126409999917087;2434
148;0.49441029999979946;2433
149;0.49742560000049707;2432
150;0.5004069999995409;2431
151;0.503424399999858;2430
152;0.5064303999988624;2429
153;0.509195999999065;2429
154;0.5124280999989423;2428
155;0.5154320999990887;2427
156;0.5183003999991342;2426
157;0.5214534999995522;2425
158;0.5244201000004978;2424
159;0.5274317000003066;2423
160;0.530456000000413;2422
161;0.5332546999998158;2421
162;0.5364294999999402;2420
163;0.5394507000000885;2419
164;0.5422966000005545;2418
165;0.5454286999993201;2417
166;0.5484123000005638;2417
167;0.5514244000005419;2416
168;0.5544301999998424;2415
169;0.5574151999990136;2414
170;0.5604671000000963;2413
171;0.5634341999993921;2412
172;0.5664145999999164;2411
173;0.5694485999993049;2410
174;0.5724474999988161;2409
175;0.5754789999991772;2409
176;0.578461299999617;2408
177;0.5814310000005207;2407
178;0.5844235999993543;2406
179;0.5874270999993314;2405
180;0.5904246999998577;2404
181;0.593254600000364;2404
182;0.5963288000002649;2404
183;0.5992518000002747;2402
184;0.6024531999992178;2401
185;0.605415300000459;2400
186;0.6084575000004406;2399
187;0.6114278999993985;2398
188;0.614411000000473;2397
189;0.6174290999988443;2397
190;0.6204221999996662;2396
191;0.6234378999997716;2395
192;0.6261443000003055;2395
193;0.6294268999990891;2394
194;0.6324224999989383;2393
195;0.6354099999989558;2392
196;0.638418399999864;2392
197;0.641427599999588;2391
198;0.6444240999990143;2390
199;0.6474410999999236;2388
200;0.6504246999993484;2387
201;0.6534164000004239;2386
202;0.6564550999992207;2385
203;0.6591033000004245;2384
204;0.6624104999991687;2383
205;0.6654527999999118;2382
206;0.6684243999989121;2381
207;0.6714085999992676;2380
208;0.6744624000002659;2379
209;0.6774303000001964;2379
210;0.6804242999987764;2378
211;0.683454799998799;2377
212;0.6864239999995334;2376
213;0.6894137999988743;2376
214;0.6922541999992973;2375
215;0.6954573999992135;2374
216;0.6984264999991865;2373
217;0.7014137999995;2372
218;0.7044562999999471;2371
219;0.7071863999990455;2370
220;0.7103174000003492;2369
221;0.713415399999576;2369
222;0.7164221999992151;2368
223;0.7194202999999106;2368
224;0.7222908000003372;2367
225;0.7254508999994869;2367
226;0.7284159999999247;2366
227;0.7314704999989772;2366
228;0.7344386999993731;2365
229;0.7374017000001913;2365
230;0.7402007999990019;2365
231;0.743216200000461;2364
232;0.7464337999990676;2364
233;0.7494081000004371;2363
234;0.7524309000000358;2362
235;0.7554258000000118;2361
236;0.7584219000000303;2360
237;0.7614291999998386;2360
238;0.7644483000003675;2359
239;0.767419300000256;2358
240;0.7704501999996864;2358
241;0.7734308999988571;2358
242;0.7774656000001414;2358
243;0.7804230000001553;2357
244;0.7834315999989485;2356
245;0.786462300000494;2356
246;0.7894345999993675;2356
247;0.7922440999991522;2355
248;0.7954589000000851;2355
249;0.7984220999987883;2354
250;0.8014265999991039;2353
251;0.8044111999988672;2352
252;0.8074529000004986;2352
253;0.810429799999838;2351
254;0.8134166999989247;2350
255;0.8162248999997246;2350
256;0.8193828000003123;2349
257;0.8224288000001252;2349
258;0.825411300000269;2349
259;0.8284272999990208;2349
260;0.8313536000005115;2348
261;0.8344197999995231;2348
262;0.8374182999996265;2347
263;0.8404546999990998;2347
264;0.843209200000274;2347
265;0.8464511999991373;2346
266;0.8494282999999996;2346
267;0.8524054999998043;2345
268;0.8554301999993186;2345
269;0.8584276999990834;2345
270;0.8614153999988048;2344
271;0.8643443000000843;2344
272;0.8674308999998175;2344
273;0.8704115999989881;2344
274;0.8734535999992659;2344
275;0.8762391999989632;2344
276;0.8794269999998505;2344
277;0.8824556999989;2344
278;0.8853951999990386;2344
279;0.8884453999999096;2344
280;0.8914215000004333;2344
281;0.8944157000005362;2344
282;0.8974367999999231;2344
283;0.9004134999995586;2344
284;0.9034307999991142;2344
285;0.906427399999302;2344
286;0.9091917000005196;2344
287;0.912417399998958;2343
288;0.9154257999998663;2343
289;0.918418199998996;2343
290;0.9214157000005798;2343
291;0.9244239999989077;2343
292;0.9273147000003519;2343
293;0.9301534000005631;2343
294;0.9334280000002764;2343
295;0.9364215999994485;2343
296;0.9394420999997237;2343
297;0.9421691999996256;2343
298;0.9454241999992519;2343
299;0.9484709999996994;2343
300;0.9514359999993758;2344
301;0.9544172000005346;2344
302;0.9572699999989709;2344
303;0.9604622999995627;2344
304;0.9634260000002541;2344
305;0.9664128000003984;2344
306;0.9694533000001684;2344
307;0.9721833999992668;2344
308;0.9754825999989407;2345
309;0.9784602999989147;2345
310;0.9814470000001165;2345
311;0.9844235000000481;2345
312;0.9874156000005314;2346
313;0.9904495999999199;2346
314;0.9944505999992543;2346
315;0.9974213000004966;2346
316;1.0004286999992473;2346
317;1.0033664999991743;2346
318;1.0064504999991186;2346
319;1.0091209000001982;2346
320;1.0124137999991945;2346
321;1.0154552000003605;2346
322;1.0184293000002071;2346
323;1.0224503999997978;2346
324;1.0254617999999027;2346
325;1.0284186999997473;2346
326;1.031428299998879;2346
327;1.0344315999991522;2346
328;1.0371606999997312;2346
329;1.0403924000002007;2346
330;1.043141199999809;2346
331;1.0464425999998639;2346
332;1.049456700000519;2347
333;1.0524547999993956;2347
334;1.0554505000000063;2347
335;1.0584345999996003;2347
336;1.061445299999832;2348
337;1.064453200000571;2348
338;1.067078500000207;2349
339;1.0704470999990008;2349
340;1.0734469999988505;2350
341;1.0761119999988296;2350
342;1.0793942000000243;2351
343;1.0822563000001537;2351
344;1.0853996999994706;2351
345;1.088441399999283;2352
346;1.09145609999905;2352
347;1.0944540000000416;2352
348;1.0974231000000145;2353
349;1.1004477999995288;2353
350;1.1034536999995908;2354
351;1.1064599999990605;2354
352;1.1091206000000966;2355
353;1.112454300000536;2355
354;1.1154294999996637;2356
355;1.1184324999994715;2356
356;1.1214332999988983;2356
357;1.1244282999996358;2357
358;1.1274345999991056;2357
359;1.1304124999987835;2357
360;1.1334280999999464;2358
361;1.1363858000004257;2358
362;1.1394044999997277;2358
363;1.1421128999991197;2359
364;1.1450170999996772;2359
365;1.1471172999990813;2359
366;1.1501229999994393;2360
367;1.1533744999996998;2360
368;1.156403599999976;2360
369;1.1590938999997888;2361
370;1.1624105999999301;2361
371;1.165403900000456;2361
372;1.1684210000003077;2362
373;1.171402500000113;2362
374;1.1744065000002593;2362
375;1.1774126999989676;2363
376;1.18041760000051;2364
377;1.1834030999998504;2365
378;1.1864115999997011;2365
379;1.1894149999989168;2366
380;1.1919844999993074;2366
381;1.195429299999887;2367
382;1.198408299998846;2368
383;1.2014055999989068;2368
384;1.2044081000003644;2369
385;1.2074247000000469;2370
386;1.2104065000003175;2371
387;1.2134038000003784;2372
388;1.2164128000003984;2372
389;1.2194072999991477;2373
390;1.2224081000003935;2374
391;1.2254090000005817;2375
392;1.228404399998908;2376
393;1.231408999999985;2376
394;1.234404099999665;2377
395;1.2374062999988382;2378
396;1.2404064999991533;2379
397;1.243398900000102;2380
398;1.2464091000001645;2381
399;1.2494055999995908;2381
400;1.2524100999999064;2382
401;1.2549859999999171;2383
402;1.2570199000001594;2384
403;1.260167399999773;2384
404;1.2631194000005053;2385
405;1.2661504999996396;2386
406;1.2691900999998325;2387
407;1.2712641999987682;2388
408;1.274399199999607;2388
409;1.2774045999994996;2389
410;1.280406399999265;2390
411;1.2834086999991996;2391
412;1.2863360999999713;2391
413;1.289450599999327;2392
414;1.2920955999998114;2393
415;1.2954305999992357;2393
416;1.298422899999423;2394
417;1.3013893999996071;2395
418;1.3044236000005185;2396
419;1.3074197999994794;2397
420;1.3104230999997526;2398
421;1.3134308999997302;2399
422;1.3164388999994117;2400
423;1.3194225999995979;2400
424;1.322406699999192;2401
425;1.325399399998787;2402
426;1.3284162999989348;2403
427;1.3314030999990791;2403
428;1.334146499999406;2404
429;1.3374122999994142;2405
430;1.3404155999996874;2406
431;1.3434108000001288;2407
432;1.3464132999997673;2407
433;1.3494004999993194;2408
434;1.3524046999991697;2410
435;1.35541639999974;2410
436;1.3583899999994173;2411
437;1.361414999999397;2412
438;1.3643802999995387;2413
439;1.3670604999988427;2414
440;1.370225999999093;2415
441;1.3732124999987718;2416
442;1.3760865999993257;2417
443;1.379209799999444;2418
444;1.3824021000000357;2419
445;1.3853796999992483;2420
446;1.3883817000005365;2421
447;1.3913505999989866;2422
448;1.3944721999996545;2422
449;1.3975571999999374;2423
450;1.401531999999861;2424
451;1.4055040000002919;2425
452;1.4092779999991762;2426
453;1.4136720999995305;2427
454;1.4177165000000969;2428
455;1.4216974999999366;2429
456;1.425662999999986;2430
457;1.4286909999991622;2431
458;1.4326851999994688;2432
459;1.4367248999988078;2433
460;1.4407150999995793;2434
461;1.4435806999990746;2435
462;1.4474460000001272;2436
463;1.4506246999990253;2438
464;1.4546962999993411;2438
465;1.4586116999998922;2439
466;1.4615654999997787;2441
467;1.4657038000004832;2442
468;1.4696946000003663;2443
469;1.4736924999997427;2445
470;1.4774779999988823;2446
471;1.4801324999989447;2448
472;1.482406600000104;2449
473;1.4853987999995297;2449
474;1.4884017999993375;2451
475;1.4914246999996976;2452
476;1.494420799999716;2453
477;1.4974155999989307;2454
478;1.500417600000219;2454
479;1.5034212999999;2455
480;1.5062536000004911;2457
481;1.509096599998884;2457
482;1.5124249999989843;2458
483;1.5154339000000618;2459
484;1.5183349999988422;2460
485;1.52139089999946;2461
486;1.524417299999186;2462
487;1.5274183000001358;2463
488;1.530417399999351;2465
489;1.5334201999994548;2465
490;1.5364183999990928;2466
491;1.5394197000005079;2467
492;1.5419483999994554;2468
493;1.5454164000002493;2468
494;1.5484221999995498;2470
495;1.5514206999996532;2470
496;1.554276699998809;2471
497;1.5574249000001146;2472
498;1.5604239999993297;2473
499;1.5634214999990945;2473
500;1.5664154999994935;2474
501;1.5692896000000474;2475
502;1.572418199999447;2476
503;1.5753477999987808;2476
504;1.5784201999995275;2477
505;1.581420700000308;2478
506;1.5844247000004543;2479
507;1.5869690999988961;2479
508;1.5900179000000207;2480
509;1.5921302999995532;2481
510;1.5951045999991038;2482
511;1.597098799999003;2482
512;1.5991197999992437;2483
513;1.602100000000064;2483
514;1.604262299999391;2484
515;1.6072640000002139;2485
516;1.6103180999998585;2485
517;1.6133073000000877;2486
518;1.6160402000004979;2486
519;1.6195415000001958;2487
520;1.6235658999994484;2488
521;1.6275585999992472;2489
522;1.6315703999989637;2490
523;1.6355255999988003;2491
524;1.6384794999994483;2492
525;1.6414858999996795;2492
526;1.64454459999979;2493
527;1.6474743999988277;2494
528;1.6504798999994819;2495
529;1.6534883999993326;2496
530;1.6563404999997147;2496
531;1.6592037999998865;2497
532;1.6623005000001285;2498
533;1.6653022999998939;2499
534;1.6682581999994;2500
535;1.6713507999993453;2501
536;1.6742842000003293;2502
537;1.6773202000003948;2502
538;1.6803177999991021;2503
539;1.6833200000000943;2503
540;1.686320999999225;2504
541;1.6893239000000904;2505
542;1.6921538999995391;2506
543;1.6951670999987982;2507
544;1.6980846999995265;2508
545;1.7011965999990935;2508
546;1.7031666999992012;2508
547;1.7051384999995207;2509
548;1.7082437999997637;2509
549;1.7113537000004726;2510
550;1.714361700000154;2510
551;1.7174727999990864;2510
552;1.7207624000002397;2511
553;1.72453459999997;2511
554;1.7277887999989616;2511
555;1.731706700000359;2512
556;1.7356904999996914;2512
557;1.7397124999988591;2512
558;1.743536199999653;2512
559;1.7466635000000679;2512
560;1.7504508000001806;2513
561;1.7534529999993538;2514
562;1.7564340999997512;2514
563;1.7592922000003455;2515
564;1.7624020999992354;2515
565;1.765403100000185;2515
566;1.76823289999993;2515
567;1.771459199999299;2516
568;1.7744621999991068;2516
569;1.777429800000391;2517
570;1.7804381000005378;2517
571;1.7834560999999667;2518
572;1.7864381999988836;2519
573;1.7892188000005262;2519
574;1.7920009999998001;2520
575;1.7944545999998809;2520
576;1.7974598999990121;2520
577;1.8004571000001306;2520
578;1.8034601999988809;2521
579;1.8063419999998587;2521
580;1.8090890000003128;2522
581;1.812423299999864;2522
582;1.8154042000005575;2522
583;1.8184246999990137;2522
584;1.8214224000003014;2523
585;1.8244238999996014;2523
586;1.8274292000005516;2523
587;1.8304188000001886;2523
588;1.833421899998939;2522
589;1.8361000999993848;2523
590;1.839421599999696;2523
591;1.8421411999988777;2523
592;1.8454229999988456;2523
593;1.8484236000003875;2523
594;1.8514204999992216;2523
595;1.8544230999996216;2523
596;1.85743150000053;2523
597;1.8604293999997026;2523
598;1.8634227999991708;2523
599;1.866420399999697;2523
600;1.8694319000005635;2523
601;1.872421199999735;2523
602;1.875273699999525;2523
603;1.8784207999997307;2523
604;1.8814165999992838;2523
605;1.8844126000003598;2523
606;1.8874109999997017;2523
607;1.890406599999551;2523
608;1.8934200999992754;2523
609;1.8964123999994627;2523
610;1.8991853999996238;2523
611;1.9024083999993309;2523
612;1.9054151000000275;2523
613;1.90839909999886;2523
614;1.9114031999997678;2523
615;1.9143819000000803;2522
616;1.917098399999304;2522
617;1.9203811999996105;2522
618;1.923362100000304;2522
619;1.9262794999995094;2521
620;1.9293887999992876;2521
621;1.9321672000005492;2520
622;1.9351420999992115;2520
623;1.938788100000238;2520
624;1.9422706999994261;2519
625;1.9465848999989248;2519
626;1.9496077000003424;2518
627;1.9536826999992627;2518
628;1.9576987000000372;2518
629;1.9606430000003456;2517
630;1.9646828000004462;2517
631;1.9685486999987916;2517
632;1.971603399999367;2517
633;1.9755504000004294;2516
634;1.9781251000003977;2516
635;1.98166239999955;2516
636;1.9855891999995947;2516
637;1.9897039999996196;2516
638;1.9936235999994096;2515
639;1.9976883999988786;2514
640;2.001698000000033;2514
641;2.0056683999991947;2515
642;2.0092253999991954;2514
643;2.0126407999996445;2513
644;2.016706200000044;2513
645;2.020676599999206;2512
646;2.0246853999997256;2512
647;2.027428499999587;2512
648;2.0306495999993786;2511
649;2.034707700000581;2511
650;2.038690899998983;2510
651;2.042192499999146;2509
652;2.0456362000004447;2508
653;2.0497009999999136;2508
654;2.0537046999997983;2507
655;2.057423700000072;2507
656;2.0606267000002845;2506
657;2.064702199999374;2506
658;2.0686872999995103;2506
659;2.0726357999992615;2505
660;2.075463799999852;2505
661;2.07971279999947;2504
662;2.083705499999269;2504
663;2.0876588999999512;2504
664;2.091784299998835;2504
665;2.094628900000316;2503
666;2.098702699999194;2503
667;2.102694600000177;2502
668;2.105127900000298;2501
669;2.10809639999934;2501
670;2.110139299998991;2501
671;2.1131322999990516;2500
672;2.1166405999993003;2500
673;2.1207353999998304;2499
674;2.124454599999808;2498
675;2.127410499999314;2497
676;2.1304106999996293;2496
677;2.1333992999989277;2495
678;2.136367999999493;2494
679;2.139112099999693;2493
680;2.141961100000117;2493
681;2.1444520999993983;2492
682;2.1474108999991586;2491
683;2.1504482999989705;2491
684;2.153444399998989;2490
685;2.156431800000064;2489
686;2.1591334999993705;2488
687;2.1624381999990874;2488
688;2.165445599999657;2487
689;2.1682872000001225;2486
690;2.1714331000002858;2485
691;2.174449399999503;2484
692;2.1774191000004066;2483
693;2.180429500000173;2483
694;2.183431199999177;2482
695;2.1864213999997446;2481
696;2.189426299999468;2480
697;2.1920948999995744;2480
698;2.195426700000098;2479
699;2.1981137999991915;2478
700;2.201422399999501;2478
701;2.204417900000408;2477
702;2.207417499999792;2476
703;2.2104190999998536;2476
704;2.2134396999990713;2475
705;2.2164154999991297;2475
706;2.219417099999191;2474
707;2.2224232999997184;2473
708;2.2252427999992506;2472
709;2.2284018999998807;2471
710;2.2314200999990135;2470
711;2.23441289999937;2469
712;2.2374116999999387;2469
713;2.2404176000000007;2468
714;2.243399599999975;2467
715;2.246128900000258;2466
716;2.248219199998857;2466
717;2.251230800000485;2465
718;2.2543248000001768;2463
719;2.2573222999999416;2462
