;time;amplitude
0;0.005211800000324729;2341
1;0.010182300000451505;2342
2;0.014677300001494586;2342
3;0.020285300000978168;2343
4;0.02467620000061288;2344
5;0.02986140000029991;2345
6;0.034452200001396704;2345
7;0.038323500000842614;2346
8;0.04123830000025919;2347
9;0.04460840000137978;2348
10;0.048717100000430946;2348
11;0.05266670000128215;2349
12;0.05651600000055623;2349
13;0.06074760000046808;2350
14;0.06467020000127377;2352
15;0.06866950000039651;2353
16;0.07286590000148863;2354
17;0.07672439999987546;2355
18;0.08066350000081002;2356
19;0.08467480000035721;2357
20;0.08874430000105349;2359
21;0.09265530000084254;2360
22;0.09656010000071547;2361
23;0.10056609999992361;2362
24;0.10464330000104383;2363
25;0.10819970000011381;2364
26;0.11160200000085752;2365
27;0.11564580000049318;2366
28;0.11965050000071642;2367
29;0.12321010000050592;2367
30;0.12767080000048736;2368
31;0.13165699999990466;2369
32;0.13565740000012738;2370
33;0.1396868000010727;2370
34;0.14309610000054818;2371
35;0.1466223000006721;2372
36;0.15067390000149317;2372
37;0.15466879999985395;2373
38;0.1586213000009593;2374
39;0.16263940000135335;2375
40;0.1666691999998875;2376
41;0.1707486000013887;2377
42;0.17440239999996265;2379
43;0.17866130000038538;2380
44;0.1826202000011108;2382
45;0.18662349999976868;2383
46;0.18999070000063512;2384
47;0.19304580000061833;2385
48;0.1965713000008691;2386
49;0.20063400000071852;2388
50;0.2046620000000985;2389
51;0.20857390000128362;2390
52;0.21259480000117037;2391
53;0.21658660000139207;2393
54;0.22062200000073062;2394
55;0.22396540000045206;2396
56;0.22753240000020014;2397
57;0.23158090000106313;2398
58;0.23559190000014496;2399
59;0.23962410000058298;2401
60;0.24343000000044412;2402
61;0.24743910000142932;2402
62;0.25113080000119226;2403
63;0.25396030000047176;2404
64;0.2568749000001844;2404
65;0.2590312000011181;2405
66;0.26212690000102157;2406
67;0.265086400000655;2407
68;0.26850000000013097;2408
69;0.2726929000000382;2409
70;0.27657640000143147;2410
71;0.28053560000080324;2411
72;0.2843797000004997;2413
73;0.28853950000120676;2414
74;0.29151850000016566;2416
75;0.2955249000006006;2417
76;0.2979510000004666;2418
77;0.301570300000094;2419
78;0.30551610000111395;2420
79;0.30850760000066657;2421
80;0.31210660000033386;2422
81;0.31548060000022815;2423
82;0.31953489999978046;2425
83;0.3230103000005329;2426
84;0.3264756999997189;2428
85;0.32953470000029483;2429
86;0.33332549999977346;2430
87;0.33735870000055;2431
88;0.3400227000001905;2433
89;0.3431990000008227;2433
90;0.34617010000147275;2434
91;0.34916730000077223;2435
92;0.35219580000011774;2436
93;0.3550948000010976;2436
94;0.3582499000003736;2437
95;0.361881100001483;2439
96;0.3650706000007631;2440
97;0.36804830000073707;2441
98;0.37104920000092534;2442
99;0.37405970000145317;2443
100;0.3770483999996941;2444
101;0.38004650000038964;2445
102;0.38312630000109493;2446
103;0.3860515000014857;2447
104;0.3895778000005521;2448
105;0.3923658000003343;2449
106;0.39641710000068997;2450
107;0.40036310000141384;2452
108;0.40437720000045374;2453
109;0.408428400000048;2455
110;0.4123760000002221;2456
111;0.41641160000108357;2458
112;0.42038550000143005;2459
113;0.42297010000038426;2460
114;0.42634970000108297;2461
115;0.42918400000053225;2462
116;0.43216150000080233;2463
117;0.43515750000005937;2464
118;0.437864499999705;2465
119;0.4410172000007151;2466
120;0.44437660000039614;2467
121;0.44841140000062296;2468
122;0.45241320000059204;2468
123;0.455369299999802;2469
124;0.45836920000147074;2470
125;0.4611850000001141;2471
126;0.4640279000013834;2472
127;0.4671390000003157;2472
128;0.4698466999998345;2473
129;0.47187339999982214;2474
130;0.4740540000002511;2475
131;0.47703050000018266;2475
132;0.480007400001341;2476
133;0.4834234000009019;2476
134;0.4875134000012622;2478
135;0.4913836000014271;2479
136;0.49541839999983495;2480
137;0.49953199999981734;2482
138;0.5035377000003791;2483
139;0.5072137000006478;2485
140;0.5103248000013991;2487
141;0.5133058999999776;2488
142;0.5161708000014187;2489
143;0.52035270000124;2490
144;0.5230518000007578;2491
145;0.5262689999999566;2493
146;0.5292414000014105;2494
147;0.532260200001474;2495
148;0.5352504000002227;2496
149;0.5381199000003107;2497
150;0.5410539000004064;2498
151;0.5442677000010008;2499
152;0.5468909999999596;2501
153;0.5502515000007406;2501
154;0.5532930000008491;2503
155;0.5560696000011376;2504
156;0.5592573000012635;2505
157;0.5622562000007747;2506
158;0.5650996000003943;2507
159;0.568094000000201;2507
160;0.5712801000008767;2508
161;0.5742466000010609;2509
162;0.5772636000001512;2509
163;0.5799459000008937;2510
164;0.5829045999998925;2510
165;0.5860319000003074;2510
166;0.5890729000002466;2511
167;0.5936492000000726;2512
168;0.5969910000003438;2513
169;0.5999258000010741;2513
170;0.6029550000002928;2514
171;0.6060862000013003;2515
172;0.6092447000009997;2515
173;0.6122433000000456;2516
174;0.6152352999997674;2517
175;0.6182466999998724;2517
176;0.6212448000005679;2517
177;0.6242497000002913;2518
178;0.6272425000006479;2518
179;0.6302388000003702;2519
180;0.6332509000003483;2519
181;0.6362378000012541;2520
182;0.6390396000006149;2520
183;0.6422644000012951;2521
184;0.6452547999997478;2522
185;0.6482711000007839;2522
186;0.6510631000001013;2523
187;0.6540636999998242;2524
188;0.6568222000005335;2525
189;0.6600232000000688;2525
190;0.6630370000002586;2526
191;0.6665385000014794;2526
192;0.6706313000013324;2527
193;0.6739014000013412;2527
194;0.6774651000014273;2527
195;0.6815194000009797;2527
196;0.6855042000006506;2529
197;0.6889811000000918;2529
198;0.6921613000013167;2530
199;0.6950045000012324;2531
200;0.6970359000006283;2531
201;0.7000841999997647;2531
202;0.7035801000001811;2532
203;0.7063689000005979;2532
204;0.7095325000009325;2533
205;0.7135186000014073;2533
206;0.7175057000004017;2534
207;0.7215272000012192;2534
208;0.7255619000006845;2534
209;0.7295154000003095;2534
210;0.7335402999997314;2534
211;0.737539800000377;2535
212;0.7415071000013995;2535
213;0.7454835999997158;2536
214;0.749536100000114;2536
215;0.7535311999999976;2536
216;0.7574866000013571;2536
217;0.7615005000006931;2536
218;0.7655165000014676;2536
219;0.7689731000009488;2535
220;0.7722407000001112;2536
221;0.7752343000011024;2536
222;0.7782262000000628;2536
223;0.7812294000013935;2536
224;0.7840797999997449;2537
225;0.7874286000005668;2537
226;0.7914061000010406;2537
227;0.7954810999999609;2537
228;0.7994085999998788;2538
229;0.8033541000004334;2538
230;0.8074773000007553;2538
231;0.811806700001398;2538
232;0.8158117000002676;2538
233;0.819793300001038;2538
234;0.8242826000005152;2538
235;0.8288516000011441;2538
236;0.8322157000002335;2538
237;0.8357093000013265;2538
238;0.8397803000007116;2538
239;0.8437212000008003;2539
240;0.8477438999998412;2538
241;0.8518092000012984;2538
242;0.8557742000011785;2538
243;0.8597781999997096;2538
244;0.8638175000014598;2538
245;0.8688744000010047;2538
246;0.8724392000003718;2538
247;0.877010700000028;2538
248;0.8807429000007687;2537
249;0.8847554000003583;2537
250;0.8898361999999906;2536
251;0.8934485000008863;2536
252;0.8978403000000981;2536
253;0.9017923000010342;2535
254;0.9058084000007511;2535
255;0.9092024000001402;2534
256;0.9132349000010436;2533
257;0.9174778000015067;2533
258;0.9214862999997422;2533
259;0.9258743999998842;2532
260;0.9308049000010215;2531
261;0.9348351000007824;2530
262;0.938676800000394;2529
263;0.9428471999999601;2529
264;0.9478355999999621;2528
265;0.9518058000012388;2528
266;0.9555419000007532;2527
267;0.9598378999999113;2527
268;0.9638396999998804;2527
269;0.967838100001245;2526
270;0.9711877000008826;2526
271;0.9742747000000236;2525
272;0.9788797000001068;2525
273;0.982831500001339;2524
274;0.9867284000010841;2524
275;0.9913572000004933;2523
276;0.9957940000003873;2523
277;0.9997505999999703;2522
278;1.0037439000006998;2521
279;1.0073019999999815;2521
280;1.0117846000011923;2521
281;1.0158386000002793;2520
282;1.0192686999998841;2519
283;1.022216400000616;2519
284;1.025701399999889;2518
285;1.0294730000005075;2517
286;1.033687799999825;2517
287;1.0377681000009034;2516
288;1.0413531000012881;2515
289;1.045769600001222;2514
290;1.0496933000013087;2514
291;1.0537772000006953;2513
292;1.0572688000011112;2513
293;1.061831600000005;2512
294;1.0658137999998871;2511
295;1.0698251000012533;2510
296;1.073240400000941;2510
297;1.076711100000466;2509
298;1.0811625000005733;2508
299;1.0858611000003293;2508
300;1.0897693000006257;2507
301;1.0937523000011424;2506
302;1.0971286000003602;2505
303;1.1018598999999085;2504
304;1.1058401000009326;2503
305;1.1097021000005043;2502
306;1.113832300001377;2501
307;1.1178282000000763;2500
308;1.1218356999997923;2499
309;1.1258237000001827;2497
310;1.1292687000004662;2496
311;1.1332089000006818;2495
312;1.1361981999998534;2494
313;1.1402773000008892;2493
314;1.1443126000012853;2492
315;1.1487379000009241;2491
316;1.152655699999741;2490
317;1.1563122000006842;2489
318;1.1594187000009697;2488
319;1.1636792000008427;2487
320;1.167601700000887;2485
321;1.171697800000402;2484
322;1.1756474000012531;2484
323;1.179739500001233;2483
324;1.183690600000773;2482
325;1.1877352999999857;2481
326;1.1912423000012495;2480
327;1.1941537000002427;2478
328;1.1971067000013136;2477
329;1.200428500000271;2476
330;1.2046516000009433;2475
331;1.2086142000007385;2473
332;1.2125766999997722;2472
333;1.2165469999999914;2470
334;1.220550000000003;2469
335;1.2242060000007768;2468
336;1.2275098000009166;2467
337;1.2315570000009757;2466
338;1.2355561000003945;2464
339;1.2389398000013898;2463
340;1.2420158000004449;2462
341;1.2450360000002547;2461
342;1.24802500000078;2460
343;1.2510757000000012;2459
344;1.253975100000389;2459
345;1.2573267000007036;2458
346;1.260282900000675;2457
347;1.263316600001417;2456
348;1.2660850000011123;2455
349;1.270378700000947;2454
350;1.2745024000014382;2453
351;1.2789649000005738;2453
352;1.2839120999997249;2451
353;1.289208400001371;2450
354;1.2941187000014907;2448
355;1.299034000001484;2447
356;1.3035815000002913;2445
357;1.3075513000003411;2443
358;1.3112988000011683;2442
359;1.3157764000006864;2441
360;1.3196585000005143;2439
361;1.3232604000004358;2438
362;1.3277063000005;2437
363;1.3316961000000447;2436
364;1.3351920000004611;2434
365;1.3382840000012948;2433
366;1.341305400001147;2432
367;1.3442666999999346;2431
368;1.3482819000000745;2430
369;1.35129760000018;2429
370;1.354285000001255;2428
371;1.3573053000000073;2427
372;1.3602871000002779;2426
373;1.3632890999997471;2425
374;1.366289700001289;2424
375;1.3692897000000812;2423
376;1.3723160999998072;2422
377;1.3752910000002885;2420
378;1.3793034999998781;2419
379;1.3822854000009102;2418
380;1.385297000000719;2417
381;1.388293200001499;2417
382;1.3913262000005489;2416
383;1.3942877999998018;2414
384;1.39710180000111;2414
385;1.4016957000003458;2412
386;1.4056620999999723;2410
387;1.4096826000004512;2409
388;1.4138761000012892;2408
389;1.4189215000005788;2406
390;1.4235762000007526;2404
391;1.4272274000013567;2403
392;1.4318098000003374;2402
393;1.4357774000000063;2400
394;1.4402232000011281;2398
395;1.44418990000122;2397
396;1.4471668000005593;2395
397;1.4506051999996998;2394
398;1.454764600000999;2392
399;1.458723400000963;2391
400;1.462157500000103;2389
401;1.465573500001483;2387
402;1.4696592000000237;2385
403;1.4732383999999001;2383
404;1.4765703000011854;2382
405;1.480589200000395;2381
406;1.4846299000000727;2380
407;1.4887077000003046;2379
408;1.4926270000014483;2378
409;1.4965817000011157;2377
410;1.5005903000001126;2376
411;1.5046567000008508;2374
412;1.5085288999998738;2374
413;1.512595500000316;2372
414;1.5165913000000728;2371
415;1.5205698999998276;2370
416;1.5245395000001736;2370
417;1.528625099999772;2369
418;1.5326340000010532;2369
419;1.5364704000003258;2368
420;1.5393378000007942;2367
421;1.5436449999997421;2367
422;1.5476346000014019;2366
423;1.5516235000013694;2366
424;1.5549363999998604;2365
425;1.558053700000528;2364
426;1.5626537000007374;2363
427;1.5666307999999844;2361
428;1.5706442000009702;2361
429;1.5745635000002949;2359
430;1.5786416000009922;2358
431;1.582611400001042;2357
432;1.5854369999997289;2356
433;1.5895505000007688;2355
434;1.5926008000005822;2355
435;1.5964132999997673;2353
436;1.6005015000009735;2352
437;1.6046574000010878;2351
438;1.6085954000009224;2351
439;1.6126423000005161;2350
440;1.616648000001078;2350
441;1.6206428000004962;2349
442;1.624576899999738;2348
443;1.6286512000006041;2347
444;1.632646100000784;2345
445;1.6366391999999905;2345
446;1.6402121000010084;2344
447;1.643576500000563;2343
448;1.6474238999999216;2343
449;1.650532600000588;2343
450;1.6546183000009478;2342
451;1.6586320000005799;2342
452;1.662450900001204;2341
453;1.665216400000645;2341
454;1.6680585000012798;2341
455;1.6711618999997881;2340
456;1.6741676000001462;2340
457;1.6771597000006295;2339
458;1.680164600000353;2339
459;1.6832020000001648;2338
460;1.6861953000006906;2337
461;1.6891654000010021;2336
462;1.6921872000002622;2336
463;1.695214200000919;2335
464;1.6981859000006807;2335
465;1.7011849000009533;2334
466;1.7041899000014382;2334
467;1.707184099999722;2333
468;1.7101887999997416;2333
469;1.7131879999997182;2333
470;1.7161873000004562;2332
471;1.719114499999705;2332
472;1.7220386999997572;2332
473;1.7256981000009546;2331
474;1.7280965999998443;2331
475;1.7311829000009311;2331
476;1.7341391000009025;2331
477;1.7371137000009185;2330
478;1.7401853000010306;2330
479;1.743183800001134;2330
480;1.746188400000392;2330
481;1.749133700001039;2329
482;1.7521919999999227;2329
483;1.7551339000001462;2329
484;1.7579997000011645;2329
485;1.7611596000006102;2329
486;1.7642043000014382;2329
487;1.7672060000004421;2329
488;1.7701437000014266;2329
489;1.77289650000057;2329
490;1.774949700000434;2328
491;1.7780686000005517;2329
492;1.7810411999998905;2329
493;1.784055800000715;2328
494;1.7870542000000569;2328
495;1.7898624999997992;2328
496;1.793076200001451;2328
497;1.796084499999779;2328
498;1.7994226999999228;2328
499;1.8035697000013897;2328
500;1.8059372000006988;2327
501;1.8093758000013622;2327
502;1.8123809000007896;2327
503;1.8151889000000665;2328
504;1.8181898000002548;2327
505;1.8212096000006568;2328
506;1.8242222000008042;2327
507;1.827195900001243;2327
508;1.8301962000005005;2328
509;1.8332112000007328;2328
510;1.8361457000009977;2328
511;1.8390414000004967;2328
512;1.8421852999999828;2327
513;1.8451900000000023;2328
514;1.8481631000013294;2328
515;1.851209700000254;2328
516;1.8540588000014395;2328
517;1.8570623000014166;2328
518;1.8604384999998729;2328
519;1.8646872999997868;2329
520;1.8686221000007208;2329
521;1.8725689000002603;2329
522;1.8765461000002688;2329
523;1.8805698000014672;2330
524;1.8845455000009679;2331
525;1.8881615999998758;2331
526;1.8912792000010086;2331
527;1.8942778000000544;2331
528;1.8973177000007126;2332
529;1.900163700000121;2332
530;1.903197600000567;2332
531;1.9060062999997172;2332
532;1.9092940999998973;2332
533;1.91229949999979;2333
534;1.9151760000004288;2333
535;1.9181029999999737;2333
536;1.9211212000009255;2334
537;1.92389010000079;2334
538;1.927113300000201;2334
539;1.930449800000133;2335
540;1.9346756000013556;2335
541;1.9385504000001674;2335
542;1.9415399999998044;2335
543;1.9452061000010872;2335
544;1.9484888000006322;2336
545;1.95254980000027;2336
546;1.9561297000000195;2337
547;1.9595008000014786;2337
548;1.9635305000010703;2338
549;1.9675581000010425;2338
550;1.9715673000009701;2338
551;1.9745462000009866;2339
552;1.978479100000186;2339
553;1.9824735000001965;2340
554;1.9865690000005998;2340
555;1.9905225000002247;2341
556;1.9943328999997902;2341
557;1.9979426999998395;2341
558;2.0012725000015053;2341
559;2.0042437000010977;2342
560;2.0072507000004407;2342
561;2.010291500000676;2343
562;2.0132936000009067;2343
563;2.016296700001476;2344
564;2.01930110000103;2344
565;2.022165700000187;2345
566;2.025182400000631;2345
567;2.028204199999891;2345
568;2.0311166000010417;2346
569;2.0342994000002363;2347
570;2.0372961000011856;2348
571;2.0399878000007448;2349
572;2.043122500001118;2349
573;2.046112300000459;2350
574;2.0493134999996983;2351
575;2.0523131000009016;2351
576;2.055228100000022;2352
577;2.0580702000006568;2352
578;2.061121300001105;2353
579;2.0641089000000648;2354
580;2.0673094000012497;2355
581;2.070285200001308;2355
582;2.073168099999748;2356
583;2.076155300001119;2357
584;2.079129700001431;2358
585;2.082311199999822;2358
586;2.0851082999997743;2359
587;2.088088399999833;2359
588;2.091081000000486;2360
589;2.0942960000011226;2361
590;2.097317600000679;2361
591;2.100262100000691;2362
592;2.1029797999999573;2362
593;2.1050976000005903;2362
594;2.106897100000424;2362
595;2.1100874000003387;2363
596;2.1131643999997323;2363
597;2.1160849000007147;2364
598;2.1190778000000137;2365
599;2.1221141000005446;2365
600;2.125692600000548;2366
601;2.1296621000001323;2368
602;2.133339900001374;2369
603;2.136000700000295;2370
604;2.1388928000014857;2371
605;2.140985300000466;2372
606;2.1439516999998887;2372
607;2.145947500001057;2373
608;2.148847200000091;2374
609;2.152344699999958;2375
610;2.1550012000006973;2375
611;2.1569878999998764;2376
612;2.1589202000013756;2376
613;2.160979700000098;2377
614;2.1629068000002007;2378
615;2.1648285999999644;2378
616;2.1668296000007103;2379
617;2.1688262000006944;2379
618;2.1707917000003363;2380
619;2.17279950000011;2381
620;2.1748180000013235;2381
621;2.1768532000005507;2382
622;2.178822100000616;2383
623;2.1808479000010266;2383
624;2.182867299999998;2384
625;2.18486060000032;2384
626;2.1868462000002182;2385
627;2.188789200001338;2386
628;2.190907199999856;2386
629;2.192910400000983;2387
630;2.194928400000208;2388
631;2.1968577000006917;2388
632;2.1989494999997987;2388
633;2.2009537000012642;2389
634;2.2029197000010754;2390
635;2.2048979999999574;2390
636;2.2068981000011263;2391
637;2.2088925000007293;2391
638;2.2108986000002915;2391
639;2.2128670000001875;2392
640;2.2148548000004666;2392
641;2.2168600000004517;2393
642;2.218933100000868;2394
643;2.221916300000885;2394
644;2.2238573000013275;2395
645;2.2260029000008217;2396
646;2.228876000001037;2397
647;2.2310527000008733;2398
648;2.234050600000046;2398
649;2.237055900000996;2399
650;2.240105800001402;2400
651;2.243051400000695;2401
652;2.2460576000012225;2402
653;2.249047100000098;2402
654;2.252047699999821;2403
655;2.255053200000475;2404
656;2.257046900000205;2405
657;2.2599005000010948;2406
658;2.262032500000714;2407
659;2.2650590000012016;2408
660;2.2680426000006264;2409
661;2.271050800000012;2409
662;2.2740408000008756;2410
663;2.2776819999999134;2411
664;2.2816226000013557;2412
665;2.285632799999803;2414
666;2.289170900001409;2415
667;2.292504300001383;2416
668;2.296528599999874;2418
669;2.3004935999997542;2419
670;2.304522399999769;2420
671;2.3079692000010255;2422
672;2.311558999999761;2423
673;2.315536500000235;2424
674;2.3195382000012614;2426
675;2.3229903999999806;2428
676;2.3258544000000256;2429
677;2.327996500000154;2430
678;2.3299822000008135;2431
679;2.333030300000246;2432
680;2.336132100001123;2432
681;2.339330800001335;2433
682;2.342458799999804;2434
683;2.3465667000000394;2436
684;2.350481299999956;2437
685;2.3534550000003946;2438
686;2.356017600000996;2439
687;2.3592215000007855;2439
688;2.3622504000013578;2441
689;2.3652373000004445;2441
690;2.368269100001271;2442
691;2.3710944000013114;2443
692;2.3742797000013525;2444
693;2.377285300000949;2445
694;2.3802938999997423;2446
695;2.3832822000003944;2447
696;2.3862875000013446;2448
697;2.3889479000008578;2449
698;2.392286800000875;2449
699;2.3952814000003855;2451
700;2.3982893000011245;2451
701;2.400979300000472;2452
702;2.4040580000000773;2453
703;2.405883999999787;2454
704;2.4081483999998454;2454
705;2.4110545000003185;2455
706;2.414086100001441;2456
707;2.4170899000000645;2457
708;2.4200536999996984;2458
709;2.4228659000000334;2459
710;2.425136300000304;2460
711;2.4280840000010357;2461
712;2.431087800001478;2462
713;2.4339061999999103;2463
714;2.4359077000008256;2464
715;2.4390203000002657;2465
716;2.442682800001421;2466
717;2.446632500001215;2468
718;2.4500088000004325;2469
719;2.453508900000088;2470
