;time;amplitude
0;0.002467399999659392;2511
1;0.00535679999848071;2511
2;0.008401099999900907;2511
3;0.011434099998950842;2510
4;0.014406499998585787;2510
5;0.017440499999793246;2510
6;0.02054609999868262;2510
7;0.023550399999294314;2510
8;0.026452799998878618;2510
9;0.029504899999665213;2510
10;0.032514099999389146;2511
11;0.035448999999061925;2511
12;0.038432299999840325;2510
13;0.04148359999999229;2510
14;0.044490599999335245;2510
15;0.04747019999922486;2510
16;0.050539399999252055;2510
17;0.05343029999858118;2510
18;0.05644969999957539;2510
19;0.061859999999796855;2510
20;0.06440149999980349;2510
21;0.06642959999953746;2510
22;0.06943569999930332;2510
23;0.07240519999868411;2510
24;0.07538349999958882;2510
25;0.0785091999987344;2510
26;0.08141149999937625;2510
27;0.08445249999931548;2510
28;0.08750319999853673;2510
29;0.0904049999990093;2510
30;0.0934248999983538;2510
31;0.09644349999871338;2510
32;0.09957199999917066;2510
33;0.10258900000007998;2510
34;0.10545879999881436;2509
35;0.10841859999891312;2510
36;0.11120249999839871;2510
37;0.113246099999742;2510
38;0.11517349999849102;2510
39;0.11723170000004757;2510
40;0.11929949999830569;2510
41;0.12118659999941883;2509
42;0.12329489999865473;2510
43;0.12631650000002992;2510
44;0.12930769999911718;2510
45;0.13234689999990223;2510
46;0.1353687999999238;2510
47;0.13819429999966815;2510
48;0.14016309999897203;2510
49;0.14216729999861855;2510
50;0.14425179999852844;2510
51;0.14624649999859685;2510
52;0.14833579999867652;2509
53;0.15021379999961937;2509
54;0.15222939999875962;2509
55;0.1542234999997163;2509
56;0.1562112999999954;2509
57;0.15821199999845703;2509
58;0.16021179999916058;2509
59;0.1622051999984251;2509
60;0.1642104999991716;2508
61;0.1661761999985174;2509
62;0.16824649999944086;2509
63;0.1702194999998028;2509
64;0.17223459999877377;2509
65;0.17419229999904928;2509
66;0.17627469999933965;2509
67;0.17816700000003038;2509
68;0.18030289999842353;2509
69;0.18229539999992994;2509
70;0.18529119999948307;2508
71;0.18818629999987024;2508
72;0.19026369999846793;2508
73;0.1931918999998743;2508
74;0.1972762999994302;2508
75;0.19920409999940603;2508
76;0.20193959999960498;2508
77;0.20421149999856425;2508
78;0.20630769999843324;2508
79;0.2083199999997305;2507
80;0.21025709999958053;2507
81;0.21225979999871925;2507
82;0.21526479999920412;2507
83;0.21721039999829372;2507
84;0.21921279999878607;2507
85;0.22122439999839116;2506
86;0.2232373999995616;2506
87;0.22524410000005446;2507
88;0.22825399999965157;2507
89;0.23022239999954763;2507
90;0.23221519999970042;2506
91;0.23425749999842083;2506
92;0.23626489999878686;2507
93;0.2382299000000785;2506
94;0.24020969999946828;2506
95;0.2422850999992079;2506
96;0.24423639999986335;2506
97;0.24624539999967965;2506
98;0.24824459999945248;2506
99;0.25028199999906064;2506
100;0.25227109999832464;2506
101;0.2552602999985538;2506
102;0.25724069999887433;2506
103;0.2602134999997361;2506
104;0.2622635999996419;2506
105;0.26424579999911657;2507
106;0.2662064999985887;2507
107;0.26816409999992175;2507
108;0.2702531999984785;2507
109;0.2733669999997801;2507
110;0.27628419999928155;2507
111;0.2792228999987856;2507
112;0.2812887000000046;2507
113;0.2832745999985491;2507
114;0.2862679999998363;2507
115;0.2882616999995662;2507
116;0.29125089999979537;2506
117;0.29424849999850267;2506
118;0.2961667999989004;2506
119;0.2981904999996914;2506
120;0.3003434999991441;2506
121;0.3023303999998461;2506
122;0.30425499999910244;2506
123;0.3062581999984104;2506
124;0.3082572999992408;2506
125;0.310243799998716;2505
126;0.31223299999874143;2505
127;0.31419129999994766;2505
128;0.31623039999976754;2505
129;0.31828259999929287;2505
130;0.32025399999838555;2505
131;0.3222663999986253;2505
132;0.3242023999991943;2505
133;0.3262937999988935;2505
134;0.3283471999984613;2505
135;0.33136089999970864;2505
136;0.3341872999990301;2504
137;0.33628999999928055;2504
138;0.3382399999991321;2503
139;0.3402589999986958;2503
140;0.342170799998712;2503
141;0.344246499998917;2503
142;0.3461996999994881;2503
143;0.34821459999875515;2503
144;0.3502402999984042;2503
145;0.3522456999999122;2503
146;0.35419829999955255;2503
147;0.3561632000000827;2503
148;0.3581938999996055;2503
149;0.360314899999139;2502
150;0.36215769999944314;2502
151;0.3642631999991863;2502
152;0.3662386999985756;2502
153;0.3682141999997839;2502
154;0.37021959999947285;2502
155;0.3722658999995474;2502
156;0.3752139999996871;2502
157;0.3772490999999718;2502
158;0.3791972999988502;2501
159;0.38128369999867573;2501
160;0.38328139999975974;2501
161;0.3852361999997811;2501
162;0.3872438999987935;2501
163;0.3902866999997059;2501
164;0.3922320999990916;2500
165;0.39418989999830956;2500
166;0.3962978999988991;2500
167;0.3982323999989603;2499
168;0.4003569999986212;2499
169;0.4023377999983495;2499
170;0.40525309999975434;2499
171;0.4082719999987603;2499
172;0.41024409999954514;2498
173;0.41224079999847163;2498
174;0.414271199999348;2498
175;0.4162488999991183;2497
176;0.4181537999993452;2497
177;0.42041799999969953;2497
178;0.42224779999924067;2497
179;0.42428949999884935;2497
180;0.4273103999985324;2497
181;0.4302473999996437;2496
182;0.432243399998697;2496
183;0.4341767999994772;2496
184;0.43627849999938917;2496
185;0.43827089999831514;2497
186;0.44123359999866807;2496
187;0.443228199999794;2496
188;0.4452428999993572;2496
189;0.44728159999976924;2495
190;0.45029429999885906;2495
191;0.45230159999846364;2495
192;0.4543400999991718;2495
193;0.4562527999987651;2495
194;0.4583904999999504;2495
195;0.4602398999995785;2494
196;0.46228729999893403;2494
197;0.4642811999983678;2494
198;0.46728599999914877;2493
199;0.46939459999885;2494
200;0.4722467999999935;2494
201;0.47423869999875023;2493
202;0.47619899999881454;2493
203;0.4781941999990522;2493
204;0.4802492999988317;2493
205;0.482236699999703;2493
206;0.4841832999991311;2492
207;0.4863705999996455;2492
208;0.48924949999855016;2492
209;0.49125009999988833;2492
210;0.4932478999999148;2492
211;0.49523889999909443;2492
212;0.49835629999870434;2492
213;0.5012529999985418;2490
214;0.5032419999988633;2490
215;0.5052343999996083;2490
216;0.5072410999982822;2490
217;0.5092390999998315;2490
218;0.5113940999999613;2489
219;0.5142906999990373;2489
220;0.5162323999993532;2489
221;0.5182311999997182;2488
222;0.5203406999989966;2488
223;0.5223659999992378;2488
224;0.5253784999986237;2488
225;0.527368099999876;2488
226;0.5293107999987114;2487
227;0.5312506999998732;2487
228;0.5332057999985409;2487
229;0.5352115999994567;2487
230;0.5372189999998227;2487
231;0.5392439999995986;2486
232;0.5412650999987818;2486
233;0.5432530999987648;2486
234;0.5452956999997696;2486
235;0.5483132999997906;2486
236;0.5502857999999833;2485
237;0.5523331999993388;2484
238;0.5543643999990309;2484
239;0.5573441999986244;2484
240;0.5603479999990668;2483
241;0.5622374999984459;2483
242;0.5642298999991908;2483
243;0.5662370999998529;2483
244;0.5683207999991282;2482
245;0.5702798999991501;2482
246;0.5732410000000527;2482
247;0.5752875999987737;2481
248;0.5773741999983031;2481
249;0.5803054999996675;2481
250;0.5822896999998193;2480
251;0.5841729999992822;2480
252;0.5863445999984833;2480
253;0.5893617999990965;2480
254;0.5922849999988102;2480
255;0.5941359999997076;2480
256;0.5961570999988908;2479
257;0.598244099999647;2479
258;0.6002451999993355;2478
259;0.6022370999999112;2478
260;0.6043331999990187;2478
261;0.6072762999992847;2477
262;0.609246299998631;2477
263;0.6112365999997564;2477
264;0.6133150999994541;2477
265;0.6152824000000692;2476
266;0.6181582999997772;2476
267;0.6201220999992074;2476
268;0.6221354999997857;2476
269;0.6242354999994859;2476
270;0.6261829999984911;2476
271;0.6281790999983059;2476
272;0.6301704999987123;2476
273;0.6321517999986099;2476
274;0.6342234999992797;2476
275;0.6362506999994366;2475
276;0.63821629999984;2474
277;0.6402101999992738;2474
278;0.6421912999994674;2474
279;0.6441966999991564;2474
280;0.6461991999985912;2473
281;0.6482013999993796;2473
282;0.6502001999997447;2473
283;0.6521841999983735;2473
284;0.6542038999996294;2472
285;0.6561983999999939;2472
286;0.658198099999936;2472
287;0.6601103999983025;2471
288;0.6621261000000231;2471
289;0.6641207999982726;2471
290;0.666115499998341;2471
291;0.6682570999983;2470
292;0.670232099999339;2470
293;0.6722887999985687;2470
294;0.6742462999991403;2470
295;0.676230699998996;2469
296;0.6782339999990654;2470
297;0.6802755999997316;2469
298;0.6833704999990005;2469
299;0.6862332000000606;2468
300;0.6883439999983239;2468
301;0.691341799998554;2468
302;0.6942866999997932;2467
303;0.6963441999996576;2466
304;0.6993450999998458;2466
305;0.702356999998301;2465
306;0.7043803999986267;2465
307;0.7072477999990952;2464
308;0.7092354999986128;2464
309;0.7112326999995275;2464
310;0.7132249999995111;2463
311;0.7152845000000525;2463
312;0.71830879999834;2462
313;0.7201503999986016;2462
314;0.7221362999989651;2462
315;0.7241533999986132;2462
316;0.7261670999996568;2461
317;0.7281417999984114;2461
318;0.7302321999995911;2460
319;0.7322356999993644;2460
320;0.7344233999992866;2460
321;0.7361426999996183;2459
322;0.7381894999998622;2459
323;0.7401716999993369;2459
324;0.7423002999985329;2458
325;0.7442098999999871;2458
326;0.746228499998324;2458
327;0.748227299998689;2457
328;0.7502413999991404;2457
329;0.752361099999689;2456
330;0.7552796999989368;2456
331;0.7572311999992962;2455
332;0.7593620999996347;2455
333;0.7611573999984103;2455
334;0.7631446999985201;2454
335;0.7653166000000056;2454
336;0.7671990999988338;2454
337;0.7691561999999976;2453
338;0.7712465999993583;2453
339;0.7732680999997683;2453
340;0.7751871999989817;2452
341;0.7771920999985014;2452
342;0.7793641999996908;2452
343;0.7822144999990996;2451
344;0.784152999998696;2451
345;0.7862572999983968;2451
346;0.7886386999998649;2450
347;0.7917499999985012;2450
348;0.7942439999987982;2450
349;0.7961970999986079;2449
350;0.798223699999653;2449
351;0.8001868999999715;2448
352;0.8021829999997863;2448
353;0.8042024999995192;2447
354;0.806165099998907;2447
355;0.8081881999987672;2447
356;0.8101836999994703;2446
357;0.81216459999996;2446
358;0.8141453999996884;2446
359;0.8161701999997604;2445
360;0.8182197999994969;2445
361;0.8203312999994523;2444
362;0.8233273999994708;2444
363;0.8263474999985192;2443
364;0.828168199999709;2443
365;0.8301169999995182;2442
366;0.8321187999990798;2442
367;0.8342248999997537;2442
368;0.8362588999989384;2441
369;0.8382666999987123;2441
370;0.8402438999983133;2440
371;0.8421164999999746;2440
372;0.8442148999984056;2439
373;0.8462630999983958;2439
374;0.8483228999994026;2439
375;0.8502868999985367;2438
376;0.8533164999989822;2438
377;0.8552930999994715;2437
378;0.8582646999984718;2437
379;0.8612708999989991;2437
380;0.8632514999990235;2436
381;0.8652808999995614;2436
382;0.8672597999993741;2435
383;0.8692458999994415;2435
384;0.871292199999516;2434
385;0.8732643999992433;2434
386;0.8752222999992227;2434
387;0.8772845999992569;2434
388;0.8802842999994027;2433
389;0.8822578999988764;2433
390;0.8842037999984314;2432
391;0.8862965999996959;2432
392;0.8882782999990013;2432
393;0.8902195999999094;2431
394;0.8922352999998111;2431
395;0.8942236999992019;2431
396;0.8962309999988065;2431
397;0.898214699998789;2430
398;0.9002415999984805;2430
399;0.902250199998889;2429
400;0.904302999999345;2429
401;0.9062262999996165;2428
402;0.9082934999987629;2428
403;0.9102533999994193;2428
404;0.9122309999984282;2428
405;0.9141659999986587;2428
406;0.9161507999997411;2427
407;0.9182018999999855;2427
408;0.9202312999987043;2426
409;0.9222135999989405;2426
410;0.9242260999999417;2425
411;0.9262178999997559;2425
412;0.9282512999998289;2425
413;0.9302176999990479;2424
414;0.9322131999997509;2424
415;0.9342103999988467;2423
416;0.9362234999989596;2423
417;0.9382298000000446;2423
418;0.9401432999984536;2423
419;0.942132499998479;2422
420;0.944119599998885;2422
421;0.9461138999995455;2422
422;0.948114999999234;2421
423;0.9503086999993684;2421
424;0.9521834999995917;2420
425;0.9542424999999639;2420
426;0.957201499999428;2419
427;0.9591875999994954;2419
428;0.9612302999994427;2419
429;0.963221899999553;2418
430;0.9651294999985112;2418
431;0.9672256999983802;2417
432;0.9693262999990111;2417
433;0.9712571000000025;2417
434;0.9732660999998188;2417
435;0.9752527999989979;2417
436;0.9772390999987692;2416
437;0.9792396999982884;2416
438;0.9812919999985752;2416
439;0.983189599999605;2415
440;0.9852068999989569;2415
441;0.9871375999991869;2414
442;0.989170799999556;2414
443;0.9911403999994945;2414
444;0.993163099999947;2414
445;0.9951382999988709;2413
446;0.9971370999992359;2413
447;0.9991606999992655;2413
448;1.0012670999985858;2413
449;1.0032635999996273;2413
450;1.0052577999995265;2412
451;1.0072316999994655;2412
452;1.0091801999988093;2411
453;1.0112214000000677;2411
454;1.0132981999995536;2410
455;1.0152514999990672;2410
456;1.017294999999649;2409
457;1.0191712999985612;2409
458;1.0212258999999904;2409
459;1.0232227999986208;2409
460;1.0252390999994532;2408
461;1.0272280999997747;2408
462;1.029283599998962;2408
463;1.0322944999988977;2407
464;1.0342971999998554;2406
465;1.0362043999994057;2406
466;1.0381871999998111;2405
467;1.040272799999002;2405
468;1.0421581999999034;2405
469;1.0443108999988908;2404
470;1.0472105999997439;2404
471;1.049264100000073;2403
472;1.0512728999983665;2403
473;1.0531812999997783;2403
474;1.0551585999983217;2402
475;1.0571474999997008;2402
476;1.059196599999268;2401
477;1.0660927999997512;2401
478;1.0682291999983136;2400
479;1.0711891999999352;2399
480;1.0731555999991542;2399
481;1.0751790999984223;2399
482;1.077146999999968;2398
483;1.0791532999992342;2398
484;1.0811940999992657;2397
485;1.0834956999988208;2397
486;1.0861766999987594;2397
487;1.0881435999999667;2397
488;1.0902276999986498;2396
489;1.0921703999993042;2396
490;1.09420769999997;2396
491;1.0962399000000005;2395
492;1.098156599999129;2394
493;1.100289399999383;2394
494;1.1022915999983525;2394
495;1.1041751999982807;2394
496;1.1062423999992461;2393
497;1.1082970999996178;2393
498;1.1102496999992582;2393
499;1.1122244999987743;2393
500;1.114215099998546;2392
501;1.1162168999999267;2392
502;1.1182142999987263;2391
503;1.1201974999985396;2391
504;1.122166199998901;2391
505;1.1241923999987193;2390
506;1.1261759999997594;2390
507;1.1282940999990387;2390
508;1.1301870999996027;2390
509;1.1322062999988702;2390
510;1.1341942999988532;2389
511;1.1361862999983714;2389
512;1.1381775999998354;2388
513;1.1402051999994;2388
514;1.1422229999989213;2388
515;1.1442275999997946;2387
516;1.146192999998675;2386
517;1.148197499998787;2386
518;1.1501795999993192;2386
519;1.1522206999998161;2385
520;1.1541674999989482;2385
521;1.1561692999985098;2385
522;1.1583335999985138;2384
523;1.1601770999986911;2383
524;1.1621966999991855;2383
525;1.1641873999997188;2383
526;1.1661836999992374;2382
527;1.1684850999990886;2382
528;1.171208799998567;2382
529;1.1742386999994778;2381
530;1.2112321999993583;2375
531;1.2285133999994287;2373
532;1.243421799999851;2371
533;1.2522899999985384;2369
534;1.2558260999994673;2369
535;1.2583407999991323;2369
536;1.260452799999257;2369
537;1.2632018999993306;2368
538;1.2652425999986008;2368
539;1.2675511999987066;2368
540;1.2703032999997959;2367
541;1.2797746999985975;2367
542;1.282325199999832;2366
543;1.3123769999983779;2364
544;1.31432599999971;2363
545;1.3162351999999373;2363
546;1.3183021999993798;2363
547;1.3202392999992298;2363
548;1.3222293999988324;2363
549;1.324239799998395;2362
550;1.3660499999987223;2362
551;1.3818859999992128;2356
552;1.4392842999986897;2354
553;1.5186027999989165;2349
554;1.5596318999996583;2347
555;1.5708575999997265;2347
556;1.5750803999999334;2347
557;1.5772300999997242;2347
558;1.5794244999997318;2348
559;1.5830761999986862;2348
560;1.5893831999983377;2347
561;1.592633799999021;2347
562;1.5957246999987547;2347
563;1.5985355999982858;2347
564;1.6045204999991256;2347
565;1.609327199999825;2347
566;1.6127080999995087;2347
567;1.6153383999990183;2347
568;1.6207359999989421;2346
569;1.6245742999999493;2347
570;1.6297101999989536;2347
571;1.63755669999955;2347
572;1.6404878999983339;2347
573;1.6432709000000614;2347
574;1.6452343999990262;2347
575;1.6472297000000253;2348
576;1.6492447000000539;2347
577;1.6514101999982813;2347
578;1.6533011999999871;2347
579;1.6562914999994973;2347
580;1.6582123999996838;2348
581;1.6602597999990394;2347
582;1.6622577999987698;2347
583;1.6642342999984976;2347
584;1.6662324999997509;2347
585;1.6682741999993596;2347
586;1.6702525000000605;2347
587;1.6722668999991583;2347
588;1.6742359999989276;2347
589;1.6778408999998646;2347
590;1.6814500000000407;2347
591;1.6843953999996302;2347
592;1.6876819999997679;2347
593;1.690821499998492;2347
594;1.6933879999996861;2347
595;1.6966035999994347;2347
596;1.6992522999989887;2347
597;1.7012577999994392;2347
598;1.7032436999998026;2347
599;1.7052203999992344;2347
600;1.7072233999988384;2347
601;1.7092935999990004;2347
602;1.7112764999983483;2347
603;1.713245899998583;2347
604;1.7152938999988692;2347
605;1.7172479000000749;2348
606;1.719259299999976;2347
607;1.7212390999993659;2347
608;1.7232609999991837;2347
609;1.7252332999996725;2347
610;1.7273300999986532;2347
611;1.7292588999989675;2347
612;1.7312119999987772;2347
613;1.7332494999991468;2348
614;1.7353164999985893;2348
615;1.7382783999983076;2348
616;1.7402226999984123;2348
617;1.742247899999711;2348
618;1.7442101999986335;2348
619;1.746223899999677;2348
620;1.7482999999992899;2348
621;1.7502906999998231;2348
622;1.7522458999992523;2349
623;1.7542412999991939;2348
624;1.7562540999988414;2348
625;1.75825789999908;2348
626;1.7603129999988596;2348
627;1.7623729999995703;2348
628;1.7642521999987366;2348
629;1.7662125999995624;2348
630;1.770266300000003;2348
631;1.7723017999996955;2348
632;1.7742644999998447;2348
633;1.7762402999996993;2348
634;1.7782336000000214;2348
635;1.7802044000000024;2348
636;1.782194299999901;2348
637;1.7842866999999387;2348
638;1.7872543999983463;2348
639;1.7892454999982874;2348
640;1.791218399999707;2348
641;1.7932490999992297;2348
642;1.79518139999891;2348
643;1.7971858000000793;2347
644;1.7991834999993443;2348
645;1.8012952999997651;2348
646;1.8032353999988118;2347
647;1.8052356999996846;2347
648;1.807219599999371;2347
649;1.8092268999989756;2347
650;1.8112167999988742;2347
651;1.8132251999995788;2347
652;1.8152175999985047;2347
653;1.8173094999983732;2347
654;1.8191954999983864;2347
655;1.8212522999983776;2347
656;1.8232345999986137;2347
657;1.8252010999985941;2347
658;1.8272572999994736;2347
659;1.8292992999995477;2347
660;1.831196799999816;2347
661;1.8332526999984111;2347
662;1.8352739999991172;2347
663;1.8382652000000235;2346
664;1.8412095999992744;2346
665;1.843186299998706;2346
666;1.8451892999983102;2346
667;1.8472588999993604;2347
668;1.8492347999999765;2346
669;1.8512893999995867;2346
670;1.8532056999993074;2346
671;1.855215199999293;2346
672;1.8572165999994468;2346
673;1.8591969999997673;2346
674;1.8611990999997943;2346
675;1.8632137999993574;2346
676;1.8651893999995082;2346
677;1.8672412999985681;2346
678;1.8691853000000265;2347
679;1.8711778999986564;2347
680;1.8732081999987713;2347
681;1.875293099999908;2347
682;1.8772417999989557;2347
683;1.87921599999936;2347
684;1.8811817999994673;2347
685;1.8831902999991144;2347
686;1.8852369999985967;2347
687;1.887278399999559;2347
688;1.8891901999995753;2347
689;1.8911871000000247;2347
690;1.8932217999990826;2347
691;1.8951908999988518;2347
692;1.8972084999986691;2347
693;1.8991755999995803;2347
694;1.9011931999993976;2348
695;1.9031562999989546;2348
696;1.905199699998775;2348
697;1.9071743999993487;2348
698;1.909198399998786;2348
699;1.9112418999993679;2348
700;1.9131578999986232;2348
701;1.915157099998396;2348
702;1.9172128999998677;2348
703;1.9192268999995576;2348
704;1.9212166999986948;2349
705;1.923204099999566;2349
706;1.9251905999990413;2348
707;1.9271894999983488;2348
708;1.9291817999983323;2348
709;1.9311765999991621;2348
710;1.9332073999994464;2348
711;1.9351925999999366;2348
712;1.9372851999996783;2348
713;1.9392863999983092;2348
714;1.9422907999996823;2348
715;1.9452840999983891;2348
