;time;amplitude
0;0.003407499998502317;2517
1;0.006354699999064906;2517
2;0.009330400000180816;2517
3;0.012492299998484668;2517
4;0.01550659999884374;2517
5;0.018473899999662535;2517
6;0.021469499999511754;2517
7;0.02444439999999304;2516
8;0.02743939999891154;2516
9;0.030442999999650056;2516
10;0.03325749999930849;2517
11;0.03643899999951827;2517
12;0.039455599999200786;2517
13;0.042479799998545786;2517
14;0.04547739999907208;2517
15;0.04847359999985201;2516
16;0.05149109999911161;2516
17;0.05443389999891224;2516
18;0.05747270000028948;2517
19;0.060446800000136136;2516
20;0.0634448999990127;2517
21;0.06639189999987138;2517
22;0.06943989999854239;2517
23;0.07245299999885901;2517
24;0.07532790000004752;2517
25;0.07829359999959706;2517
26;0.08133180000004359;2516
27;0.08433839999997872;2516
28;0.0873210999998264;2516
29;0.0903184999988298;2516
30;0.0933257999986381;2516
31;0.09635179999895627;2516
32;0.09932299999854877;2516
33;0.10228970000025583;2515
34;0.10528599999997823;2515
35;0.10828760000003967;2515
36;0.11027669999930367;2514
37;0.11329829999885987;2514
38;0.11631409999972675;2514
39;0.11938289999852714;2515
40;0.12238040000011097;2515
41;0.12537399999928311;2515
42;0.1271433000001707;2515
43;0.1291892999997799;2515
44;0.1312222999986261;2515
45;0.13315249999868684;2515
46;0.13519479999922623;2515
47;0.13719969999874593;2515
48;0.1392158999988169;2514
49;0.14122609999867564;2514
50;0.14317099999971106;2514
51;0.14506079999955546;2514
52;0.14710620000005292;2514
53;0.14908269999978074;2514
54;0.15111309999883815;2514
55;0.15306429999873217;2514
56;0.15510360000007495;2514
57;0.15716389999943203;2514
58;0.15920179999920947;2514
59;0.16118589999859978;2514
60;0.16321760000028007;2513
61;0.1652075000001787;2513
62;0.16723350000029313;2513
63;0.16919199999938428;2513
64;0.1712052999992011;2513
65;0.1732170999985101;2513
66;0.17518860000018321;2513
67;0.1771986999992805;2513
68;0.18022000000019034;2513
69;0.18222989999958372;2512
70;0.1841919999988022;2512
71;0.18621689999963564;2512
72;0.18822159999945143;2512
73;0.19022079999922425;2512
74;0.19221199999992677;2512
75;0.1942213999991509;2512
76;0.19622869999875547;2512
77;0.1982382999995025;2512
78;0.20019270000011602;2511
79;0.20222869999997783;2511
80;0.20535479999853123;2511
81;0.20834839999952237;2511
82;0.21128659999885713;2511
83;0.21320430000014312;2510
84;0.21522269999877608;2511
85;0.21718609999879845;2511
86;0.21920270000009623;2511
87;0.221127400000114;2511
88;0.2231906999986677;2510
89;0.2261605999992753;2511
90;0.22919619999993301;2511
91;0.2312010999994527;2511
92;0.23316239999985555;2511
93;0.23519759999908274;2511
94;0.23712479999994684;2511
95;0.2392350999998598;2511
96;0.24118540000017674;2511
97;0.24320230000012089;2511
98;0.2452021999997669;2511
99;0.24720259999958216;2511
100;0.2491969999991852;2511
101;0.25121239999862155;2510
102;0.253201599998647;2510
103;0.25519229999918025;2511
104;0.25718809999852965;2511
105;0.2591925999986415;2510
106;0.2612043999997695;2510
107;0.2631857999986096;2510
108;0.2652111999996123;2510
109;0.26715319999857456;2510
110;0.26922229999945557;2510
111;0.2712300999992294;2510
112;0.27323509999951057;2510
113;0.275235099999918;2510
114;0.27719040000010864;2510
115;0.2791977999986557;2510
116;0.28121639999881154;2510
117;0.2831854999985808;2510
118;0.28512570000020787;2510
119;0.28720309999880556;2510
120;0.28919309999946563;2509
121;0.29119989999890095;2509
122;0.2931919000002381;2509
123;0.2952014999991661;2509
124;0.29719289999957255;2508
125;0.29916229999980715;2508
126;0.30121109999890905;2508
127;0.3032065999996121;2508
128;0.3051955999999336;2507
129;0.3071911999995791;2507
130;0.3091964999985066;2507
131;0.31121859999984736;2507
132;0.3132172999994509;2507
133;0.31520129999989877;2506
134;0.31715859999894747;2506
135;0.3192001999996137;2506
136;0.3212115999995149;2507
137;0.3231847999995807;2506
138;0.32519259999935457;2506
139;0.3271902999986196;2506
140;0.3292106999997486;2506
141;0.3311697999997705;2506
142;0.3331268000001728;2505
143;0.33523199999945064;2505
144;0.33723680000002787;2505
145;0.3392076999989513;2504
146;0.34119269999973767;2504
147;0.34336280000025;2504
148;0.3464664000002813;2504
149;0.3491976999994222;2503
150;0.35220359999948414;2503
151;0.355210799998531;2502
152;0.3573101999991195;2502
153;0.35920789999909175;2502
154;0.3612044999990758;2502
155;0.363225600000078;2502
156;0.3652433999995992;2502
157;0.36716559999877063;2502
158;0.3692185999989306;2501
159;0.37122899999849324;2502
160;0.37321089999932155;2501
161;0.3751862999997684;2501
162;0.3771944000000076;2501
163;0.3792238999994879;2500
164;0.381199800000104;2500
165;0.3832112000000052;2500
166;0.38519669999914186;2500
167;0.38719209999908344;2500
168;0.3892094000002544;2499
169;0.39119399999981397;2499
170;0.393202499999461;2498
171;0.3952136999996583;2499
172;0.39718769999853976;2499
173;0.3991998000001331;2498
174;0.40120070000011765;2498
175;0.403204199999891;2498
176;0.40519449999919743;2498
177;0.4071868999999424;2497
178;0.40919769999891287;2497
179;0.41122379999978875;2497
180;0.41320529999939026;2497
181;0.415242600000056;2497
182;0.4182271999998193;2496
183;0.42020279999997;2496
184;0.422214599999279;2495
185;0.4242084999987128;2495
186;0.4262027999993734;2495
187;0.42819299999973737;2494
188;0.43019359999925655;2494
189;0.43221449999873585;2494
190;0.4342068999994808;2494
191;0.43621059999895806;2493
192;0.43820599999889964;2493
193;0.44020999999884225;2493
194;0.44220559999848774;2493
195;0.4441276999987167;2492
196;0.44618789999913133;2492
197;0.4481977999985247;2492
198;0.4502041999985522;2492
199;0.4522084999989602;2491
200;0.4542031999990286;2491
201;0.45620299999973213;2490
202;0.45813079999970796;2490
203;0.4601102999986324;2490
204;0.46211380000022473;2490
205;0.4640719999988505;2490
206;0.46607769999900484;2489
207;0.46808599999894795;2489
208;0.47007750000011583;2489
209;0.4720657999987452;2489
210;0.47407709999970393;2488
211;0.47609089999969;2488
212;0.47808599999916623;2488
213;0.48007919999872684;2487
214;0.48209200000019337;2487
215;0.484213899999304;2487
216;0.4861529999998311;2486
217;0.488142299998799;2486
218;0.49013169999852835;2485
219;0.49210369999855175;2485
220;0.49420479999935196;2485
221;0.4962391999997635;2485
222;0.498221799998646;2484
223;0.5002102999987983;2484
224;0.5022306999999273;2484
225;0.5052258999985497;2483
226;0.507255399999849;2483
227;0.5102824999994482;2483
228;0.5132753999987472;2482
229;0.5162679999993998;2482
230;0.518305199999304;2482
231;0.5213128999985202;2482
232;0.524290999999721;2482
233;0.5273027999992337;2481
234;0.5302618999994593;2481
235;0.5332112999985839;2480
236;0.5352189999994152;2480
237;0.5372475999993185;2480
238;0.5392959999990126;2479
239;0.5422722999992402;2478
240;0.5452685999989626;2478
241;0.5482752999996592;2477
242;0.5512569999991683;2477
243;0.553194899999653;2477
244;0.5552385999999387;2477
245;0.5582432999999583;2477
246;0.5601982999996835;2476
247;0.5622213999995438;2476
248;0.5642267999992328;2476
249;0.5662750999999844;2476
250;0.5682694999995874;2475
251;0.5712524999999005;2475
252;0.5742178000000422;2474
253;0.5762548000002425;2473
254;0.5782192999995459;2473
255;0.580211499998768;2473
256;0.5821926999997231;2472
257;0.5842961999987892;2472
258;0.5872512999994797;2471
259;0.5902165999996214;2471
260;0.5932720999990124;2470
261;0.5962933999999223;2469
262;0.5992227999995521;2469
263;0.6012839999984863;2468
264;0.6032337999986339;2468
265;0.6052375999988726;2467
266;0.6072532999987743;2467
267;0.6092312999990099;2466
268;0.6111719000000448;2466
269;0.6132301999987249;2466
270;0.615232999998625;2465
271;0.6182250999991084;2465
272;0.6201925999994273;2465
273;0.6222158999989915;2464
274;0.6242046999996091;2464
275;0.6262047999989591;2463
276;0.6282221999990725;2463
277;0.6302235999992263;2462
278;0.6322161999996752;2462
279;0.6342530999991141;2462
280;0.6362599999993108;2462
281;0.6391966999999568;2461
282;0.6412083999985043;2461
283;0.6431993999995029;2460
284;0.6450647000001482;2460
285;0.6472333999990951;2460
286;0.6492208999989089;2459
287;0.6512284000000363;2459
288;0.6532391000000644;2458
289;0.6552128000002995;2458
290;0.6572258999985934;2457
291;0.6592239000001427;2457
292;0.6612445999999181;2456
293;0.6641595000000962;2456
294;0.6661961999998312;2455
295;0.668190999998842;2455
296;0.6711739000002126;2455
297;0.6731682999998156;2454
298;0.6751568999989104;2454
299;0.6771728999992774;2453
300;0.6792852999988099;2453
301;0.682176399999662;2453
302;0.6854613999985304;2453
303;0.688271099999838;2452
304;0.6912522999991779;2451
305;0.6932011999997485;2451
306;0.6952750000000378;2450
307;0.6982075999985682;2449
308;0.7001887999995233;2449
309;0.702200300000186;2448
310;0.7042003999995359;2448
311;0.706233599999905;2448
312;0.7082434999992984;2447
313;0.7102505000002566;2446
314;0.7122156999994331;2446
315;0.714217999999164;2446
316;0.7161839999989752;2445
317;0.71921299999849;2445
318;0.7212194999992789;2445
319;0.7231503000002704;2445
320;0.7252152000000933;2445
321;0.7272149000000354;2445
322;0.729204999999638;2444
323;0.7312158999993699;2444
324;0.7331471999987116;2444
325;0.7352063999987877;2444
326;0.737277099999119;2443
327;0.7391778000001068;2443
328;0.7412047999987408;2442
329;0.7432159999989381;2441
330;0.7452412999991793;2441
331;0.7472340999993321;2441
332;0.7492572999999538;2441
333;0.7512294999996811;2440
334;0.7532352999987779;2440
335;0.7552212999999028;2439
336;0.7572426999995514;2439
337;0.7592530999991141;2438
338;0.7612437999996473;2438
339;0.7632321000000957;2438
340;0.7652363999986846;2438
341;0.767142499998954;2437
342;0.7692164000000048;2437
343;0.7711072000001877;2436
344;0.7732550000000629;2436
345;0.7762279999988095;2436
346;0.7781954999991285;2435
347;0.7801925999992818;2435
348;0.7830899999989924;2434
349;0.7852404999994178;2434
350;0.7872391999990214;2433
351;0.7892080000001442;2433
352;0.7912359999991168;2432
353;0.7932002999987162;2431
354;0.796204399999624;2431
355;0.7982104999991861;2430
356;0.8002177999987907;2429
357;0.8021503999989363;2429
358;0.8042133999988437;2429
359;0.8062272999995912;2428
360;0.8082106000001659;2427
361;0.8102208000000246;2427
362;0.8122057000000495;2427
363;0.8142463999993197;2427
364;0.8162458999995579;2426
365;0.8182344999986526;2426
366;0.8201869999993505;2425
367;0.8221584000002622;2425
368;0.8241581000002043;2424
369;0.8261926999985008;2424
370;0.82815539999865;2423
371;0.8301792999991449;2422
372;0.8321997000002739;2422
373;0.8352156999990257;2422
374;0.8371797999989212;2421
375;0.840181699999448;2421
376;0.8421860999987985;2420
377;0.8442106999991665;2420
378;0.846224799999618;2419
379;0.8482500999998592;2419
380;0.8502866999988328;2418
381;0.8522032000000763;2418
382;0.8542237999990903;2417
383;0.8562062000000878;2417
384;0.8581878999993933;2416
385;0.8612202999993315;2416
386;0.863207099999272;2416
387;0.8650908999989042;2415
388;0.8672050999994099;2415
389;0.8692226000002847;2414
390;0.8711905000000115;2414
391;0.8732192999996187;2414
392;0.8752124999991793;2413
393;0.877230199999758;2413
394;0.8792511999999988;2412
395;0.8812012999987928;2412
396;0.8830729000001156;2411
397;0.8852323999999498;2411
398;0.8871795999984897;2410
399;0.889206899999408;2410
400;0.891184299998713;2409
401;0.8931832999987819;2409
402;0.8952480999996624;2408
403;0.8972668999995221;2408
404;0.8992309999994177;2408
405;0.9012124000000767;2408
406;0.9032408999992185;2407
407;0.9052111000000878;2407
408;0.9071979999989708;2407
409;0.9091873999987001;2406
410;0.9111885000002076;2406
411;0.9130659000002197;2405
412;0.9151664000000892;2405
413;0.9171657999995659;2404
414;0.9191632000001846;2404
415;0.9211575999997876;2404
416;0.9231518999986292;2403
417;0.92512749999878;2403
418;0.9271687000000384;2403
419;0.9291092999992543;2402
420;0.9311649999999645;2402
421;0.933105500000238;2401
422;0.9351976999987528;2401
423;0.937200499998653;2400
424;0.9392095000002882;2400
425;0.941224999998667;2400
426;0.9431093999992299;2399
427;0.9452298999985942;2398
428;0.9472497999995539;2397
429;0.9493005999993329;2397
430;0.9522299000000203;2396
431;0.9542275999992853;2395
432;0.9562270999995235;2395
433;0.9582035999992513;2395
434;0.9601997999998275;2395
435;0.9622607000001153;2395
436;0.9642317999987426;2394
437;0.9662360999991506;2394
438;0.9682455000001937;2394
439;0.9702534999996715;2393
440;0.9722200999985944;2392
441;0.9741806000001816;2391
442;0.977210399998512;2391
443;0.9792359000002762;2390
444;0.9812218999995821;2389
445;0.9831411999984994;2389
446;0.9852007999998023;2389
447;0.9872261000000435;2389
448;0.9892319999999017;2389
449;0.9911776999997528;2388
450;0.9931429999996908;2388
451;0.9952152999994723;2387
452;0.9972079999988637;2387
453;0.9992107999987638;2386
454;1.0012392999997246;2386
455;1.0031972999986465;2385
456;1.005221999999776;2385
457;1.0072072999992088;2384
458;1.0092222000002948;2384
459;1.011228299999857;2384
460;1.0142433000000892;2383
461;1.0162786000000779;2383
462;1.0182162999990396;2383
463;1.0203401999988273;2383
464;1.0233200999991823;2382
465;1.0261957999991864;2382
466;1.0282355999988795;2381
467;1.0302512999987812;2381
468;1.0331651999986207;2380
469;1.0352738999990834;2379
470;1.0372478999997838;2379
471;1.0392381000001478;2378
472;1.0412409999989904;2378
473;1.0432578999989346;2378
474;1.045225500000015;2377
475;1.0472699999991164;2377
476;1.0492496999995637;2377
477;1.0512345999995887;2377
478;1.0532462999999552;2376
479;1.0552071000001888;2376
480;1.057184799999959;2375
481;1.059127599999556;2374
482;1.0612005000002682;2374
483;1.0631065999987186;2373
484;1.0652382999996917;2373
485;1.0670625000002474;2372
486;1.0692192999995314;2372
487;1.0712386999985029;2372
488;1.0732095999992453;2371
489;1.0752278999989358;2371
490;1.07722719999947;2371
491;1.0792210999989038;2371
492;1.0812427999990177;2371
493;1.083175099998698;2370
494;1.0862031999986357;2370
495;1.088224099999934;2369
496;1.0902260999991995;2369
497;1.0922352999987197;2369
498;1.0941229999989446;2369
499;1.0961170999999013;2368
500;1.0980853000000934;2368
501;1.10008199999902;2367
502;1.1030849999988277;2367
503;1.1050858999988122;2366
504;1.1070897999998124;2366
505;1.109079899999415;2366
506;1.111072099998637;2366
507;1.1131049999985407;2366
508;1.1152081999989605;2365
509;1.1171806000002107;2364
510;1.1191810999989684;2364
511;1.1211961999997584;2364
512;1.1231962999991083;2363
513;1.1251733999997668;2363
514;1.1271846999989066;2362
515;1.1291803999993135;2362
516;1.1323248999997304;2362
517;1.1352159999987634;2361
518;1.1372224999995524;2361
519;1.1392160999985208;2360
520;1.1412419999996928;2360
521;1.1432261999998445;2360
522;1.1452441000001272;2360
523;1.1471658999998908;2359
524;1.149222699999882;2359
525;1.1512671999989834;2358
526;1.1532676999995601;2358
527;1.1552326999990328;2358
528;1.1572338999994827;2357
529;1.1592026999987866;2357
530;1.1610984999988432;2357
531;1.1631868999993458;2356
532;1.1663172999997187;2356
533;1.1691351999998005;2356
534;1.1711496999996598;2355
535;1.1732537999996566;2355
536;1.1752670999994734;2355
537;1.1772254999996221;2355
538;1.1792263999996067;2355
539;1.1812594000002719;2354
540;1.1831194999995205;2354
541;1.185249299998759;2354
542;1.18726549999883;2354
543;1.1892135999987659;2354
544;1.191241099999388;2354
545;1.193257499999163;2353
546;1.1952201999993122;2353
547;1.197254199998497;2353
548;1.1992548999987775;2353
549;1.201141199999256;2353
550;1.2032123999997566;2353
551;1.2053092999994988;2353
552;1.2073167999988073;2353
553;1.210173699999359;2353
554;1.2132206999995105;2352
555;1.2152991000002658;2352
556;1.218228599998838;2351
557;1.2213021999996272;2351
558;1.2242067999995925;2351
559;1.2262171000002127;2350
560;1.2282331999995222;2350
561;1.2302684999995108;2350
562;1.2322488999998313;2349
563;1.2342496999990544;2349
564;1.236253899998701;2349
565;1.2382529999995313;2349
566;1.240243799999007;2349
567;1.2422627999985707;2349
568;1.2442224999995233;2349
569;1.2461932999995042;2348
570;1.2482319999999163;2348
571;1.2501315999998042;2348
572;1.252125299999534;2347
573;1.254249499999787;2347
574;1.2562422999999399;2348
575;1.258218199998737;2347
576;1.2602337999996962;2347
577;1.262239399999089;2347
578;1.2642428999988624;2346
579;1.2661694999987958;2347
580;1.268230499999845;2346
581;1.270219599999109;2346
582;1.2722091999985423;2346
583;1.2752521999991586;2345
584;1.2771667999986676;2345
585;1.279142800000045;2345
586;1.281097499999305;2345
587;1.2831197999985307;2345
588;1.2850858999991033;2344
589;1.2871273000000656;2344
590;1.2891528999989532;2344
591;1.2911268999996537;2344
592;1.2932295999999042;2344
593;1.2952238999987458;2344
594;1.297235099998943;2344
595;1.2991559999991296;2343
596;1.3011243000000832;2343
597;1.3031000999999378;2343
598;1.3052298999991763;2343
599;1.3072315999997954;2343
600;1.30923139999868;2343
601;1.3112244999992981;2343
602;1.3132251999995788;2342
603;1.3152432999995654;2342
604;1.3172475999999733;2342
605;1.3191838999991887;2342
606;1.3211847999991733;2342
607;1.3242374999990716;2342
608;1.3262383999990561;2342
609;1.3282428000002255;2342
610;1.3302284999990661;2341
611;1.3322291999993467;2342
612;1.3342298999996274;2341
613;1.336325799999031;2341
614;1.3382173999998486;2341
615;1.3402286000000458;2341
616;1.3422448000001168;2341
617;1.344231299999592;2341
618;1.3462287999991531;2341
619;1.3482322999989265;2341
620;1.3501636000000872;2340
621;1.3522269999994023;2340
622;1.3542325999987952;2340
623;1.3562395999997534;2340
624;1.3582322000002023;2340
625;1.3601215999988199;2340
626;1.3621255999987625;2340
627;1.364119899999423;2340
628;1.3661809999994148;2340
629;1.3681259999993927;2340
630;1.370148899999549;2340
631;1.3722347999992053;2340
632;1.3742578999990656;2340
633;1.3762563000000227;2340
634;1.3782117999999173;2340
635;1.3802564999987226;2340
636;1.3821953999995458;2340
637;1.3842276999985188;2340
638;1.3862286999992648;2340
639;1.3892356999986077;2340
640;1.3912443999997777;2340
641;1.3932466999995086;2340
642;1.3952515000000858;2340
643;1.397250099998928;2340
644;1.399265899999591;2340
645;1.4012380999993184;2340
646;1.403226899999936;2340
647;1.405245299998569;2340
648;1.4072325999986788;2340
649;1.4092154999998456;2340
650;1.411251199999242;2340
651;1.413236099999267;2340
652;1.415149399999791;2340
653;1.4170658999992156;2340
654;1.4191393000000971;2340
655;1.4211453999996593;2340
656;1.4232218999986799;2341
657;1.4252157999999326;2341
658;1.4272340999996231;2340
659;1.429250299999694;2341
660;1.4322612999985722;2340
661;1.4342306999988068;2340
662;1.436230199999045;2340
663;1.4382277999993676;2340
664;1.4402362000000721;2340
665;1.442236299999422;2340
666;1.4442447000001266;2340
667;1.4462385999995604;2341
668;1.4482408999992913;2341
669;1.4501815999992687;2340
670;1.4522124999984953;2340
671;1.4542428999993717;2340
672;1.4562398999987636;2341
673;1.4582360999993398;2341
674;1.4602431999992405;2341
675;1.4622265999987576;2340
676;1.464230999999927;2341
677;1.4661598999991838;2341
678;1.4682364999989659;2341
679;1.4702363999986119;2341
680;1.4722302999998647;2341
681;1.4742331999987073;2341
682;1.476235699999961;2341
683;1.4782405999994808;2341
684;1.4802276999998867;2341
685;1.4822379999986879;2341
686;1.4842315999994753;2341
687;1.4862284999999247;2342
688;1.488233099998979;2341
689;1.4902278999998089;2341
690;1.4922325999996247;2341
691;1.4942613000002893;2341
692;1.4962644999995973;2341
693;1.4982485999989876;2342
694;1.5002334999990126;2342
695;1.5022275999999692;2342
696;1.5042309000000387;2342
697;1.50623110000015;2342
698;1.5082163999995828;2342
699;1.5102272999993147;2342
700;1.512226799999553;2343
701;1.5141353999988496;2343
702;1.5160931999998866;2342
703;1.5181241999998747;2342
704;1.520237900000211;2342
705;1.5222436999993079;2342
706;1.5242321999994601;2342
707;1.5261512999986735;2342
708;1.528235300000233;2343
709;1.5301596999997855;2342
710;1.5321503999984998;2342
711;1.5342725999998947;2343
712;1.5372565999987273;2342
713;1.5391939000001003;2342
714;1.5412440999989485;2342
715;1.5432069999988016;2342
