;time;amplitude
0;0.004691899999670568;2487
1;0.008593799999289331;2487
2;0.012419599999702768;2487
3;0.0164189000006445;2488
4;0.0204278000001068;2488
5;0.02423590000034892;2488
6;0.027102500000182772;2488
7;0.030287499999758438;2489
8;0.033269100000325125;2488
9;0.03629999999975553;2489
10;0.03931419999935315;2488
11;0.04230900000038673;2488
12;0.04533869999977469;2488
13;0.04833879999932833;2489
14;0.05119320000085281;2488
15;0.05431429999953252;2488
16;0.05732159999934083;2488
17;0.06031090000033146;2488
18;0.06331219999992754;2488
19;0.06630930000028457;2488
20;0.06931839999924705;2488
21;0.07233160000032512;2488
22;0.07531290000042645;2488
23;0.07830819999981031;2488
24;0.0813120999991952;2488
25;0.08498470000085945;2487
26;0.08831760000066424;2487
27;0.09233259999928123;2487
28;0.09582829999999376;2487
29;0.09953330000098504;2487
30;0.10315249999985099;2487
31;0.10628639999958978;2487
32;0.11017709999941872;2487
33;0.11320180000075197;2487
34;0.11620509999920614;2487
35;0.11902550000013434;2487
36;0.1222170000000915;2487
37;0.12521960000049148;2487
38;0.1282043999999587;2487
39;0.13123049999921932;2487
40;0.13413720000062312;2487
41;0.1370294999996986;2487
42;0.14017799999965064;2487
43;0.14320860000043467;2487
44;0.14620810000087658;2487
45;0.14921219999996538;2487
46;0.15194680000058725;2486
47;0.1552339000008942;2487
48;0.15820970000095258;2487
49;0.16121759999987262;2487
50;0.1642109000003984;2488
51;0.1672221000007994;2488
52;0.1702127999997174;2488
53;0.17321219999939785;2488
54;0.1762137999994593;2488
55;0.17923250000058033;2487
56;0.18221509999966656;2487
57;0.18492420000075072;2487
58;0.1882086999994499;2487
59;0.19120750000001863;2487
60;0.19420910000008007;2487
61;0.19710250000025553;2487
62;0.20023290000062843;2487
63;0.20321069999954489;2487
64;0.2062077999999019;2487
65;0.20921129999987897;2487
66;0.21221030000015162;2487
67;0.21522340000046825;2487
68;0.21799319999990985;2487
69;0.22121150000020862;2487
70;0.2242234000004828;2487
71;0.22721359999923152;2487
72;0.2302151000003505;2487
73;0.23321360000045388;2487
74;0.2362119999997958;2487
75;0.23921230000087235;2487
76;0.24220810000042547;2488
77;0.24484280000069703;2488
78;0.24799139999959152;2488
79;0.25103280000075756;2487
80;0.2540422000001854;2487
81;0.25716230000034557;2488
82;0.26002230000085547;2488
83;0.26313850000042294;2488
84;0.266138700000738;2488
85;0.269146799999362;2488
86;0.27220669999951497;2489
87;0.2749915999993391;2488
88;0.2782088999992993;2488
89;0.28122090000033495;2488
90;0.28422689999933937;2488
91;0.2872076999992714;2489
92;0.2902109000006021;2489
93;0.29320969999935187;2488
94;0.2962186999993719;2488
95;0.2992054999995162;2488
96;0.3020269999997254;2488
97;0.3052090000001044;2488
98;0.3082200000008015;2488
99;0.3112163000005239;2488
100;0.3142109000000346;2488
101;0.31721230000039213;2487
102;0.3202067000001989;2487
103;0.32321349999983795;2487
104;0.32622470000023895;2488
105;0.3292120000005525;2487
106;0.33221319999938714;2487
107;0.3348150000001624;2487
108;0.3380359999991924;2487
109;0.34121050000067044;2487
110;0.3441629999997531;2487
111;0.34720609999931185;2487
112;0.35013360000084504;2487
113;0.35314219999963825;2487
114;0.3560283000006166;2487
115;0.3592210000006162;2487
116;0.36214010000003327;2487
117;0.3652325999992172;2487
118;0.3679701000000932;2487
119;0.37122099999942293;2487
120;0.37470849999954225;2487
121;0.3782377000006818;2487
122;0.38121069999942847;2487
123;0.38420810000025085;2487
124;0.3872293999993417;2487
125;0.39021390000016254;2487
126;0.3932053000007727;2487
127;0.3962128999992274;2487
128;0.39920970000093803;2486
129;0.402026300000216;2486
130;0.4052150999996229;2486
131;0.4082254999993893;2487
132;0.4112082999999984;2487
133;0.41413640000064333;2487
134;0.4172087000006286;2487
135;0.42021659999954863;2486
136;0.42323430000033113;2486
137;0.4262108000002627;2486
138;0.42921299999943585;2486
139;0.4317633000009664;2486
140;0.4349079999992682;2486
141;0.43820899999991525;2487
142;0.4412090999994689;2487
143;0.44420850000096834;2487
144;0.4472294999995938;2487
145;0.4502109000004566;2487
146;0.45323070000085863;2487
147;0.4562191000004532;2487
148;0.45920769999975164;2487
149;0.46221259999947506;2487
150;0.46497359999921173;2487
151;0.46780890000081854;2487
152;0.47015300000020943;2487
153;0.4731547999999748;2487
154;0.47617490000084217;2487
155;0.4790962999995827;2487
156;0.4822144000008848;2486
157;0.4848536999998032;2486
158;0.48820789999990666;2487
159;0.491221599999335;2487
160;0.494213399999353;2487
161;0.49721470000076806;2487
162;0.500216399999772;2487
163;0.5032210999997915;2487
164;0.5062104000007821;2487
165;0.5092113000009704;2487
166;0.512212499999805;2487
167;0.5152371999993193;2487
168;0.5179865000009158;2487
169;0.5212179999998625;2487
170;0.5242159000008542;2487
171;0.5272179000003234;2488
172;0.5301589000009699;2488
173;0.5332328000004054;2487
174;0.5361441000004561;2488
175;0.5392081999998481;2487
176;0.541854200000671;2488
177;0.54495069999939;2488
178;0.5482097000003705;2488
179;0.5510384000008344;2488
180;0.5542119000001549;2488
181;0.5571416999991925;2488
182;0.5602123999997275;2488
183;0.5632112000002962;2487
184;0.5662193999996816;2487
185;0.5691604999992705;2487
186;0.5722234999993816;2486
187;0.5748402000008355;2486
188;0.5778196999999636;2486
189;0.5798267999998643;2487
190;0.5818249000003561;2486
191;0.5839747000009083;2486
192;0.5859756999998353;2486
193;0.5889924999992218;2486
194;0.5922071000004507;2486
195;0.5951743000005081;2486
196;0.5981780000001891;2486
197;0.6011097999999038;2486
198;0.604216899999301;2486
199;0.6077076000001398;2486
200;0.6114359000002878;2487
201;0.6144279000000097;2486
202;0.6172169000001304;2486
203;0.6200592999994115;2486
204;0.6232151999993221;2486
205;0.6261584000003495;2486
206;0.6292154999991908;2486
207;0.6322199999995064;2487
208;0.6347793000004458;2487
209;0.637217999999848;2487
210;0.6402103000000352;2487
211;0.6432218000009016;2487
212;0.6462186999997357;2487
213;0.6491366999998718;2487
214;0.6520409000004292;2487
215;0.655594600000768;2487
216;0.6594488000009733;2487
217;0.6622313000007125;2487
218;0.6651431999998749;2487
219;0.6679139000007126;2487
220;0.6712079000008089;2487
221;0.6755365999997593;2487
222;0.6798402999993414;2487
223;0.6844889999993029;2487
224;0.6884179999997286;2487
225;0.6930174999997689;2487
226;0.6980502000005799;2487
227;0.7014395999995031;2487
228;0.7058472000007896;2487
229;0.7097481000000698;2487
230;0.7138099999992846;2488
231;0.7178480999991734;2488
232;0.7218102000006184;2488
233;0.7255052000000433;2488
234;0.7294903000001796;2488
235;0.732174999999188;2488
236;0.7352513999994699;2488
237;0.7380933000004006;2488
238;0.7415197999998782;2488
239;0.7453960999991978;2488
240;0.748521499999697;2489
241;0.7520672999999078;2488
242;0.7556125999999495;2488
243;0.7596453999994992;2488
244;0.7636538000006112;2488
245;0.7676241999997728;2488
246;0.7716653999996197;2488
247;0.7756298000003881;2488
248;0.77973910000037;2488
249;0.7837044999996579;2488
250;0.7877341999992495;2488
251;0.7917137000004004;2488
252;0.7952542000002722;2488
253;0.7986203000000387;2488
254;0.8022086000000854;2488
255;0.8066462999995565;2488
256;0.810667800000374;2487
257;0.8146379999998317;2487
258;0.8181045000001177;2487
259;0.8226417000005313;2487
260;0.8266101999997773;2487
261;0.8306186999998317;2487
262;0.8347095999997691;2488
263;0.8386871999991854;2487
264;0.8426285000005009;2487
265;0.8465768000005482;2488
266;0.8506515999997646;2487
267;0.8548802000004798;2487
268;0.8586350999994465;2487
269;0.8625972999998339;2487
270;0.8666484000004857;2487
271;0.8705829999998969;2487
272;0.8746510000000853;2487
273;0.8786187999994581;2487
274;0.8826604999994743;2487
275;0.8861758999992162;2487
276;0.8895852000005107;2487
277;0.8936714999999822;2487
278;0.8976292000006652;2487
279;0.9015988999999536;2487
280;0.905234300000302;2487
281;0.9085379000007379;2487
282;0.9122786999996606;2487
283;0.9161225999996532;2487
284;0.9191389999996318;2487
285;0.9236443000008876;2487
286;0.9276231000003463;2487
287;0.9316109999999753;2487
288;0.9352448000008735;2487
289;0.9396732999994128;2487
290;0.9436187999999675;2487
291;0.947609900000316;2487
292;0.951553500000955;2488
293;0.9556665000000066;2488
294;0.9596271999998862;2488
295;0.9636535000008735;2487
296;0.96768449999945;2487
297;0.9716533999999228;2488
298;0.9756168999992951;2488
299;0.9796552999996493;2488
300;0.9836460999995325;2488
301;0.9876752000000124;2488
302;0.9916348999995535;2488
303;0.9956541999999899;2488
304;0.9996136999998271;2488
305;1.0036110000000917;2488
306;1.0076499999995576;2487
307;1.0116366000002017;2487
308;1.0155563000007533;2488
309;1.0192425000004732;2488
310;1.0226010999995196;2487
311;1.0266764000007242;2487
312;1.0306633000000147;2487
313;1.0346905999995215;2487
314;1.0386632999998255;2488
315;1.0425697999999102;2488
316;1.0461317999997846;2487
317;1.049098800000138;2487
318;1.0521740000003774;2487
319;1.055481499999587;2487
320;1.059670399999959;2487
321;1.063561299999492;2487
322;1.0677082000001974;2487
323;1.0716551000004984;2487
324;1.0752842000001692;2487
325;1.078613800000312;2488
326;1.0826584999995248;2488
327;1.0864070000006905;2488
328;1.0906408999999258;2487
329;1.0945981000004394;2488
330;1.0986525999996957;2488
331;1.1021794999996928;2488
332;1.105588300000818;2487
333;1.10965860000033;2487
334;1.1136089999999967;2487
335;1.1176493000002665;2487
336;1.1216753000007884;2488
337;1.1255442000001494;2487
338;1.1296700999992026;2487
339;1.1336370000008174;2487
340;1.136576299999433;2487
341;1.1406815999998798;2487
342;1.1446200999998837;2487
343;1.1486215999993874;2487
344;1.1521933999993053;2486
345;1.156672900000558;2487
346;1.1606174999997165;2486
347;1.1646710999993957;2486
348;1.1681884999998147;2486
349;1.171667399999933;2486
350;1.175662600000578;2486
351;1.1797155999993265;2486
352;1.1837104999995063;2486
353;1.1877335000008316;2486
354;1.191523800000141;2486
355;1.195720199999414;2486
356;1.199703000000227;2486
357;1.2036282000008214;2486
358;1.2076594999998633;2485
359;1.2116112999992765;2485
360;1.2157471000009537;2486
361;1.219182799999544;2485
362;1.2225883999999496;2485
363;1.226656599999842;2485
364;1.2306169999992562;2485
365;1.2342257000000245;2485
366;1.2375933000002988;2486
367;1.241643600000316;2486
368;1.2456631000004563;2485
369;1.249132599999939;2485
370;1.2521802999999636;2486
371;1.2556287000006705;2486
372;1.2593870000000607;2486
373;1.2635589000001346;2486
374;1.267779399999199;2486
375;1.2716017000002466;2486
376;1.2755883999998332;2486
377;1.2791116000007605;2487
378;1.282520900000236;2487
379;1.2865438999997423;2487
380;1.290588600000774;2487
381;1.2945087000007334;2487
382;1.2985798999998224;2487
383;1.3020813000002818;2487
384;1.3053072999991855;2487
385;1.3082013000002917;2486
386;1.3109569999996893;2486
387;1.314186300000074;2486
388;1.317189999999755;2486
389;1.3201877999999851;2486
390;1.3231833999998344;2486
391;1.3261277000001428;2486
392;1.3292192999997496;2486
393;1.3322499000005337;2486
394;1.3350726999997278;2486
395;1.3382127999993827;2486
396;1.3410564999994676;2486
397;1.3439392000000225;2485
398;1.3471566000007442;2485
399;1.3501782000003004;2485
400;1.3531722999996418;2485
401;1.3562172000001738;2486
402;1.3592201999999816;2486
403;1.3622161999992386;2485
404;1.3652161000009073;2485
405;1.3678242000005412;2485
406;1.3701765999994677;2485
407;1.3729189000005135;2485
408;1.3762162999992142;2485
409;1.3792143999999098;2485
410;1.3822077000004356;2485
411;1.384932299999491;2485
412;1.3883273999999801;2485
413;1.3912139000003663;2484
414;1.3942105999994965;2485
415;1.39721180000015;2485
416;1.4002084999992803;2485
417;1.403219199999512;2485
418;1.4062202000004618;2485
419;1.4092135000009876;2485
420;1.412213800000245;2485
421;1.4152092999993329;2485
422;1.4178081000009115;2485
423;1.4212368999997125;2485
424;1.4242087000002357;2484
425;1.4272120000005089;2484
426;1.4302162999993016;2484
427;1.4332080999993195;2484
428;1.4358628999998473;2484
429;1.438977600000726;2484
430;1.442157600000428;2484
431;1.4452120999994804;2484
432;1.4482212000002619;2484
433;1.4511055999992095;2484
434;1.454221800000596;2484
435;1.4572148000006564;2484
436;1.4602099999992788;2484
437;1.4632089999995515;2484
438;1.466221200000291;2485
439;1.469212800000605;2484
440;1.4722087000009196;2484
441;1.47521179999967;2484
442;1.4782078999996884;2483
443;1.4812062000000878;2483
444;1.4840987999996287;2484
445;1.4872200999998313;2484
446;1.4902086000001873;2483
447;1.493210700000418;2483
448;1.4962070000001404;2484
449;1.4992357999999513;2484
450;1.5022284999995463;2483
451;1.5052063999992242;2483
452;1.5082122999992862;2483
453;1.5112093000007008;2483
454;1.5139512999994622;2483
455;1.5172239999992598;2483
456;1.521731799999543;2482
457;1.5253792999992584;2482
458;1.5284558000003017;2482
459;1.531186100000923;2483
460;1.5341441000000486;2482
461;1.537191499999608;2482
462;1.540211100000306;2482
463;1.5432125000006636;2481
464;1.5460144999997283;2481
465;1.547952400000213;2481
466;1.5510763000002044;2481
467;1.5542089999999007;2481
468;1.5572176999994554;2481
469;1.5602139999991778;2480
470;1.5632165000006353;2480
471;1.5662104000002728;2480
472;1.569211500000165;2480
473;1.5722093000003952;2480
474;1.5752081999999064;2480
475;1.57823339999959;2480
476;1.5812117000004946;2480
477;1.5840492999996059;2480
478;1.5872118000006594;2480
479;1.590217400000256;2480
480;1.5932128000004013;2480
481;1.5962134000001242;2480
482;1.5992284000003565;2480
483;1.6022124999999505;2479
484;1.605211000000054;2479
485;1.608175499999561;2479
486;1.6112106000000495;2479
487;1.614235600000029;2479
488;1.6172141999995802;2479
489;1.620210799999768;2479
490;1.623212300000887;2478
491;1.6262334000002738;2478
492;1.629211999999825;2478
493;1.6322237000003952;2478
494;1.635022399999798;2477
495;1.638229300000603;2477
496;1.6412139000003663;2477
497;1.6442143999993277;2477
498;1.6470028000003367;2477
499;1.6502258000000438;2476
500;1.6532384000001912;2476
501;1.655921199999284;2475
502;1.6590047999998205;2475
503;1.6623042999999598;2475
504;1.6664125000006607;2475
505;1.669111299999713;2474
506;1.6723111999999674;2474
507;1.6753095999993093;2474
508;1.6781554999997752;2474
509;1.6812126000004355;2473
510;1.6841137999999773;2473
511;1.6869301999995514;2473
512;1.6902117999998154;2473
513;1.6936122000006435;2473
514;1.697629500000403;2473
515;1.7011595999993006;2472
516;1.7042762000000948;2472
517;1.7071869999999763;2472
518;1.7101830999999947;2472
519;1.7132223999997223;2472
520;1.7162152000000788;2472
521;1.7192135999994207;2471
522;1.7222144000006665;2471
523;1.725235399999292;2471
524;1.7282095000009576;2470
525;1.7312120999995386;2470
526;1.7339511000009225;2470
527;1.7372230000000854;2470
528;1.7406628000007913;2469
529;1.7444486999993387;2469
530;1.7482278000006772;2469
531;1.7510304000006727;2469
532;1.7543332000004739;2469
533;1.757341099999394;2468
534;1.76021369999944;2468
535;1.7632102999996278;2468
536;1.7659942000009323;2467
537;1.7689712999999756;2467
538;1.772210700000869;2467
539;1.775226300000213;2467
540;1.7782155000004423;2467
541;1.780865000000631;2467
542;1.7841740999992908;2467
543;1.787242000000333;2466
544;1.7902137000000948;2466
545;1.7932141000001138;2466
546;1.7961546999995335;2466
547;1.7992130000002362;2466
548;1.8021014999994804;2465
549;1.8052138999992167;2464
550;1.8082107999998698;2464
551;1.811212799999339;2464
552;1.8142165999997815;2464
553;1.8172374999994645;2464
554;1.8202178999999887;2463
555;1.8232193000003463;2463
556;1.8262094000001525;2463
557;1.829218299999411;2463
558;1.8322238000000652;2462
559;1.8350282999999763;2462
560;1.8382084000004397;2462
561;1.8412112000005436;2461
562;1.844210999999632;2461
563;1.8472476000006282;2460
564;1.8502128000000084;2460
565;1.8532133999997313;2459
566;1.8562091999992845;2459
567;1.8591188000009424;2459
568;1.8622302000003401;2458
569;1.8652084000004834;2459
570;1.867854800000714;2458
571;1.8712085999995907;2458
572;1.8746418000009726;2457
573;1.8769687000003614;2457
574;1.878984799999671;2458
575;1.8821284999994532;2457
576;1.8849943999994139;2457
577;1.8881216000008862;2457
578;1.8909641999998712;2456
579;1.8941180000001623;2456
580;1.8971638000002713;2456
581;1.9001442000007955;2456
582;1.9031539000006887;2455
583;1.9063327999992907;2455
584;1.909302199999729;2455
585;1.9137229999996634;2454
586;1.9175044000003254;2454
587;1.9203104000007443;2453
588;1.923352600000726;2453
589;1.9261683000004268;2453
590;1.929221200000029;2452
591;1.9322083000006387;2452
592;1.9350226000005932;2451
593;1.9380822000002809;2450
594;1.9412119000007806;2450
595;1.9442122000000381;2450
596;1.9471661000006861;2450
597;1.9502104000002873;2449
598;1.9532407999995485;2449
599;1.9562155999992683;2449
600;1.9592235000000073;2448
601;1.9622125000005326;2448
602;1.9652136999993672;2447
603;1.9679980000000796;2447
604;1.9699531999995088;2447
605;1.9732371000009152;2447
606;1.9762107000005926;2446
607;1.9792099000005692;2446
608;1.9822120000008;2446
609;1.9849677000001975;2446
610;1.9870847000001959;2446
611;1.9899492000004102;2446
612;1.9919461000008596;2446
613;1.9940086000005977;2445
614;1.9970893999998225;2445
615;2.000091899999461;2445
616;2.003184900000633;2445
617;2.0066244000008737;2444
618;2.010537399999521;2444
619;2.0143165000008594;2443
620;2.0180579999996553;2443
621;2.021170100000745;2443
622;2.024212800000896;2443
623;2.0271659000009095;2442
624;2.030213100000765;2442
625;2.0332137000004877;2442
626;2.036210599999322;2441
627;2.039211699999214;2441
628;2.042213200000333;2441
629;2.045212900000479;2440
630;2.048035499999969;2440
631;2.050946900000781;2439
632;2.0542115999996895;2439
633;2.0572114000005968;2438
634;2.060220400000617;2438
635;2.063167700000122;2437
636;2.0662331999992603;2437
637;2.0692120999992767;2436
638;2.0727234999994835;2436
639;2.076606799999354;2436
640;2.0806257000003825;2435
641;2.0845091999999568;2435
642;2.0885498999996344;2434
643;2.092533499999263;2434
644;2.0962837000006402;2433
645;2.098972399999184;2433
646;2.102158800000325;2432
647;2.1051325000007637;2431
648;2.1081403999996837;2431
649;2.111185800000385;2430
650;2.114217700000154;2430
651;2.1171637999996165;2430
652;2.1202205999998114;2429
653;2.1232065000003786;2429
654;2.1259205999995174;2428
655;2.129208700000163;2428
656;2.1322118999996746;2428
657;2.135196499999438;2427
658;2.138211900000897;2427
659;2.141185399999813;2427
660;2.1442124000004696;2427
661;2.1472123000003194;2427
662;2.1502113999995345;2426
663;2.1532236999992165;2426
664;2.156215200000588;2426
665;2.159209600000395;2425
666;2.162207200000921;2425
667;2.165220999999292;2424
668;2.167925199999445;2424
669;2.171207900000809;2424
670;2.17421049999939;2424
671;2.1772068999998737;2424
672;2.1802126000002318;2423
673;2.183231999999407;2423
674;2.1862361999992572;2422
675;2.188907100000506;2422
676;2.1922307000004366;2422
677;2.19521689999965;2422
678;2.198234900000898;2421
679;2.2009108000002016;2421
680;2.204169799999363;2421
681;2.2070270999993227;2420
682;2.2088760000006005;2420
683;2.212161699999342;2420
684;2.2151558000005025;2419
685;2.21786339999926;2419
686;2.2199651999999332;2419
687;2.2231697000006534;2419
688;2.2261610999994446;2418
689;2.2291559999994206;2418
690;2.232173500000499;2418
691;2.234989399999904;2418
692;2.237099300000409;2417
693;2.2401463000005606;2417
694;2.2431526000000304;2417
695;2.24614450000081;2416
696;2.2488589999993565;2416
697;2.2508054000008997;2416
698;2.253297900000689;2416
699;2.256302499999947;2416
700;2.2592924000000494;2415
701;2.2621569000002637;2415
702;2.2651495999998588;2414
703;2.267826299999797;2414
704;2.2711772000002384;2414
705;2.274164099999325;2414
706;2.277213600000323;2413
707;2.280225900000005;2413
708;2.283056599999327;2413
709;2.2862212;2412
710;2.2892080000001442;2412
711;2.29222160000063;2412
712;2.2952086000004783;2411
713;2.298273500000505;2411
714;2.300779600000169;2410
715;2.3031439000005776;2410
716;2.306206999999631;2410
717;2.3092111999994813;2409
718;2.312209800000346;2409
