;time;amplitude
0;0.002630600001793937;2504
1;0.005591900000581518;2505
2;0.008554600000934443;2505
3;0.011514600000737119;2505
4;0.014664000000266242;2505
5;0.01765260000138369;2505
6;0.020629100001315237;2506
7;0.023612400000274647;2507
8;0.026663900000130525;2507
9;0.029658800000106567;2507
10;0.032630500001687324;2508
11;0.035678500000358326;2508
12;0.03868330000113929;2508
13;0.04161820000081207;2509
14;0.044660300000032294;2509
15;0.04765670000051614;2509
16;0.05067150000104448;2510
17;0.05365740000161168;2510
18;0.05663090000052762;2511
19;0.05966930000067805;2511
20;0.06263570000010077;2512
21;0.0656319000008807;2512
22;0.068653300000733;2512
23;0.07168730000012147;2512
24;0.0745641000012256;2512
25;0.07766650000121444;2512
26;0.08065750000059779;2512
27;0.08362920000035956;2513
28;0.08665430000110064;2514
29;0.0896645000011631;2514
30;0.0926552000000811;2514
31;0.09549820000029285;2514
32;0.09855770000103803;2514
33;0.10152900000139198;2514
34;0.10452690000056464;2514
35;0.1075263000002451;2514
36;0.11061480000171287;2515
37;0.11365440000008675;2515
38;0.11663050000061048;2515
39;0.11966730000131065;2516
40;0.12250240000139456;2516
41;0.1255544000014197;2515
42;0.12847190000138653;2515
43;0.13150020000102813;2515
44;0.13448730000163778;2516
45;0.13750140000047395;2516
46;0.14043790000141598;2516
47;0.142461600000388;2516
48;0.14443019999998796;2517
49;0.14642860000094515;2517
50;0.14843350000046485;2517
51;0.1504575000017212;2518
52;0.1534698000014032;2518
53;0.1564518000013777;2517
54;0.1595502000000124;2517
55;0.1613351000014518;2517
56;0.16332880000118166;2517
57;0.16532600000027742;2518
58;0.16732350000165752;2518
59;0.1693254000001616;2518
60;0.17138430000159133;2518
61;0.17335340000136057;2518
62;0.17536570000083884;2519
63;0.17737590000069758;2519
64;0.1793561000013142;2519
65;0.18139170000176819;2519
66;0.1834528000017599;2519
67;0.18544180000026245;2518
68;0.18746290000126464;2518
69;0.18942660000175238;2518
70;0.19142730000021402;2518
71;0.19443440000031842;2519
72;0.19645940000009432;2519
73;0.1984349000013026;2519
74;0.20045530000061262;2519
75;0.2023287000010896;2519
76;0.2054591000014625;2520
77;0.20733510000172828;2520
78;0.20939010000074632;2520
79;0.21237610000025597;2520
80;0.2143915000015113;2520
81;0.2163570000011532;2520
82;0.21835730000020703;2520
83;0.2203707000007853;2520
84;0.22233320000123058;2519
85;0.22435180000138644;2519
86;0.22643800000150804;2520
87;0.22842030000174418;2520
88;0.2304189000005863;2520
89;0.23242080000090937;2520
90;0.2344795000008162;2520
91;0.23742520000087097;2520
92;0.23942950000127894;2520
93;0.24139190000096278;2520
94;0.24338320000060776;2520
95;0.24538080000093032;2520
96;0.24749660000088625;2520
97;0.24935700000060024;2520
98;0.25161880000086967;2520
99;0.2544160000015836;2520
100;0.2564068000010593;2520
101;0.2583690999999817;2520
102;0.260425700000269;2520
103;0.2624444000011863;2520
104;0.2643913000010798;2520
105;0.2664280000008148;2520
106;0.2684526000011829;2520
107;0.27043870000125025;2520
108;0.27245310000034806;2520
109;0.2743876000004093;2520
110;0.2773110000016459;2519
111;0.27930040000137524;2519
112;0.2813024000006408;2520
113;0.2833007000008365;2520
114;0.2853008000001864;2520
115;0.28733160000047064;2519
116;0.28933560000041325;2519
117;0.29130890000124054;2519
118;0.29330470000058995;2519
119;0.2952997000011237;2520
120;0.29730170000038925;2520
121;0.2993013000013889;2520
122;0.30131210000035935;2520
123;0.30342170000039914;2519
124;0.3054107000007207;2519
125;0.3073415000017121;2520
126;0.30936930000098073;2520
127;0.3113185000001977;2520
128;0.3134051000015461;2520
129;0.3153715000007651;2520
130;0.3173145000000659;2520
131;0.3194431000010809;2520
132;0.32142450000173994;2519
133;0.32446430000163673;2519
134;0.32737530000122206;2519
135;0.330583500001012;2519
136;0.3334084000016446;2520
137;0.3354129000017565;2520
138;0.33740400000169757;2520
139;0.33941020000020217;2520
140;0.34140320000005886;2520
141;0.34342370000013034;2520
142;0.3454016000014235;2520
143;0.3484035000001313;2520
144;0.3504091000013432;2520
145;0.35244480000073963;2520
146;0.3544238000013138;2519
147;0.3564566000004561;2519
148;0.3583535000016127;2519
149;0.3604408000010153;2519
150;0.3624487000015506;2519
151;0.36441910000030475;2519
152;0.3664139000011346;2519
153;0.36841670000103477;2519
154;0.3704072000000451;2519
155;0.37245070000062697;2519
156;0.3744038000004366;2519
157;0.3774527000005037;2519
158;0.3794740000012098;2519
159;0.38146060000144644;2519
160;0.38343280000117375;2519
161;0.385458100001415;2519
162;0.38745810000000347;2518
163;0.38943080000171904;2518
164;0.3914632000014535;2518
165;0.3934937000012724;2518
166;0.39543870000125025;2518
167;0.3974033000013151;2518
168;0.4003853000012896;2518
169;0.40243500000178756;2518
170;0.40438800000083575;2518
171;0.40638730000137;2518
172;0.40833720000046014;2518
173;0.4103986000009172;2518
174;0.41241360000094573;2517
175;0.41442170000118494;2517
176;0.4164299000003666;2517
177;0.4183926000005158;2517
178;0.4204036000010092;2517
179;0.4223284000017884;2517
180;0.4253768000016862;2517
181;0.42860900000050606;2517
182;0.4314362000004621;2517
183;0.4345270000012533;2518
184;0.43738070000108564;2518
185;0.43940830000065034;2517
186;0.44145900000148686;2517
187;0.4434393000010459;2517
188;0.4454252000014094;2517
189;0.44739210000079765;2517
190;0.449418300000616;2517
191;0.45141640000110783;2517
192;0.45439860000078625;2517
193;0.45639890000165906;2517
194;0.4583713000010903;2517
195;0.4604014000015013;2517
196;0.46239650000097754;2517
197;0.46439010000176495;2517
198;0.4664042000003974;2517
199;0.4684634000004735;2517
200;0.4703927000009571;2517
201;0.4733914000007644;2517
202;0.47538620000159426;2517
203;0.4773888000017905;2517
204;0.4793847000000824;2516
205;0.48138200000175857;2516
206;0.4833819000014046;2516
207;0.4854081000012229;2517
208;0.487454300000536;2517
209;0.48944090000077267;2517
210;0.492553100000805;2517
211;0.49546470000132103;2517
212;0.4974115000004531;2517
213;0.4994205000002694;2517
214;0.501429800000551;2517
215;0.5034023000007437;2517
216;0.5064366000005975;2516
217;0.5083253000011609;2516
218;0.5104106000017055;2516
219;0.5124150999999983;2516
220;0.5144364000007045;2516
221;0.5164062000003469;2516
222;0.518440499999997;2516
223;0.5204084000015428;2516
224;0.5224356000016996;2515
225;0.5242893000013282;2516
226;0.5264221000015823;2516
227;0.5284493000017392;2516
228;0.5304684000002453;2516
229;0.5323217000004661;2516
230;0.5353033000010328;2515
231;0.5373235000006389;2515
232;0.5393652000002476;2515
233;0.5413817000007839;2515
234;0.5444118000013987;2515
235;0.5463825000006182;2515
236;0.548408600001494;2515
237;0.5504337000002124;2516
238;0.5524090000017168;2516
239;0.5544388000016625;2516
240;0.5564481000001251;2516
241;0.5584785000010015;2516
242;0.560446100000263;2516
243;0.5624363000006269;2515
244;0.5644033000007767;2515
245;0.5664042000007612;2515
246;0.5694348000015452;2515
247;0.5714326000015717;2515
248;0.5734489000005851;2515
249;0.5754450000003999;2515
250;0.5774537000015698;2514
251;0.5794204000012542;2514
252;0.5814857000004849;2514
253;0.5834635000010167;2514
254;0.5854522000008728;2514
255;0.5874430000003485;2514
256;0.58947100000114;2514
257;0.5914937000015925;2514
258;0.5934518000012758;2514
259;0.5954164000013407;2514
260;0.5974630000000616;2515
261;0.5994666000005964;2514
262;0.6014720000002853;2514
263;0.6034580000014103;2514
264;0.6054526000007172;2514
265;0.6074188000002323;2514
266;0.6094251000013173;2514
267;0.6114188000010472;2514
268;0.6134501000015007;2514
269;0.615451600000597;2514
270;0.6174360000004526;2513
271;0.6194190000005619;2513
272;0.621441600000253;2513
273;0.6234207000015886;2513
274;0.625368900000467;2513
275;0.6273822000002838;2513
276;0.629406400001244;2513
277;0.6313887000014802;2513
278;0.6334082000012131;2512
279;0.6364296000010654;2512
280;0.6384646000005887;2512
281;0.6404512000008253;2512
282;0.6425429000009899;2511
283;0.6454286000007414;2511
284;0.6474130000005971;2511
285;0.6494321000009222;2511
286;0.6514407000013307;2511
287;0.6534350000001723;2511
288;0.6554404000016802;2511
289;0.6574437000017497;2511
290;0.6594323000008444;2511
291;0.6614326000017172;2511
292;0.6634387000012794;2511
293;0.6654353000012634;2511
294;0.6674341000016284;2511
295;0.669432600001528;2511
296;0.6714630000005855;2510
297;0.6734034000000975;2510
298;0.6753637000001618;2510
299;0.6774168000010832;2510
300;0.6794309000015346;2510
301;0.6814421000017319;2510
302;0.6834486000007018;2510
303;0.6854425000001356;2510
304;0.6874445000012201;2510
305;0.6894553000001906;2510
306;0.6924767000000429;2510
307;0.6944684000009147;2510
308;0.6964227000007668;2509
309;0.6986760000017966;2509
310;0.7015594000004057;2509
311;0.7044813000011345;2509
312;0.7065080000011221;2509
313;0.7084679000017786;2509
314;0.7104609000016353;2509
315;0.712464700000055;2509
316;0.7144273000012618;2508
317;0.7163958000001003;2508
318;0.7184303000012733;2508
319;0.7203975000011269;2508
320;0.722434000001158;2508
321;0.7243109000010008;2508
322;0.726269400000092;2508
323;0.7284395000006043;2508
324;0.730427000000418;2507
325;0.7323952000006102;2507
326;0.7344252000002598;2507
327;0.736316500000612;2507
328;0.7384381000010762;2506
329;0.7404587000000902;2506
330;0.7424528999999893;2505
331;0.744441500000903;2505
332;0.7464409000003798;2505
333;0.7484394000002794;2506
334;0.7504395000014483;2506
335;0.7534115000016754;2505
336;0.7564674000004743;2505
337;0.7584115000008751;2505
338;0.7604394000009052;2505
339;0.7624293000008038;2504
340;0.7654473000002326;2504
341;0.7685470000014902;2503
342;0.7715029000009963;2503
343;0.7734359000005497;2503
344;0.7755663000007189;2502
345;0.7784681000011915;2502
346;0.7804694000005838;2502
347;0.7824691000005259;2502
348;0.7844315000002098;2501
349;0.7864587000003667;2501
350;0.7884449000011955;2501
351;0.7904299000001629;2501
352;0.7924648000007437;2501
353;0.794450000001234;2500
354;0.7964476000015566;2500
355;0.7983741000007285;2500
356;0.8004401000016514;2500
357;0.802438800001255;2500
358;0.8045103000004019;2500
359;0.8074265000013838;2500
360;0.8104163000007247;2499
361;0.8124375000006694;2499
362;0.8144464000015432;2499
363;0.8164093000013963;2499
364;0.8184697000015149;2498
365;0.8204551000017091;2498
366;0.8224494000005507;2497
367;0.8244045000010374;2497
368;0.8274572000009357;2497
369;0.8294753000009223;2496
370;0.8325320000003558;2496
371;0.8354248000014195;2496
372;0.838573400000314;2496
373;0.8413980000004813;2496
374;0.8444416000002093;2496
375;0.8464328000009118;2496
376;0.8484375000007276;2496
377;0.8504346000008809;2495
378;0.8524864000009984;2495
379;0.8544555000007676;2495
380;0.8564548000013019;2495
381;0.858386400001109;2494
382;0.8604457000001275;2494
383;0.8624369000008301;2494
384;0.8654481000012311;2493
385;0.8674337000011292;2493
386;0.8693991000000096;2492
387;0.8714070000005449;2492
388;0.873429400000532;2492
389;0.8763840000010532;2491
390;0.8784220000015921;2491
391;0.8804181000014069;2490
392;0.8824179000002914;2491
393;0.8844256000011228;2490
394;0.8864963000014541;2490
395;0.8894038000016735;2490
396;0.8913912000007258;2489
397;0.8934125000014319;2489
398;0.8954033000009076;2489
399;0.8974063000005117;2489
400;0.9004107000000658;2488
401;0.9024001000016142;2488
402;0.9044003000017256;2488
403;0.9063976000015828;2488
404;0.9083542000007583;2487
405;0.9104445000011765;2487
406;0.9124436000001879;2486
407;0.9144514000017807;2486
408;0.9164393000010023;2485
409;0.9184427000000142;2485
410;0.9204335000013089;2485
411;0.9224572000002809;2484
412;0.9243737000015244;2484
413;0.9264366000006703;2483
414;0.9284410000000207;2483
415;0.9304415000005974;2483
416;0.932440200000201;2483
417;0.9344363000000158;2483
418;0.936440000001312;2483
419;0.9384481000015512;2482
420;0.9404429000005621;2482
421;0.9424455000007583;2482
422;0.9455956000001606;2481
423;0.9484735000005458;2481
424;0.9504730000007839;2481
425;0.9524676000000909;2481
426;0.9545255000011821;2480
427;0.9564660000014555;2480
428;0.9584579000002122;2480
429;0.9604568000013387;2480
430;0.962466900000436;2479
431;0.9644563000001654;2479
432;0.9664554000009957;2478
433;0.9684480000014446;2478
434;0.9704404000003706;2478
435;0.9734549000004336;2477
436;0.975405099999989;2477
437;0.9774003000002267;2476
438;0.9794035000013537;2476
439;0.9814015000010841;2475
440;0.9833925000002637;2475
441;0.9854605000000447;2475
442;0.9874156000005314;2475
443;0.9894170000006852;2475
444;0.9914403000002494;2474
445;0.9934148000011191;2474
446;0.9954189000000042;2474
447;0.9974151000005804;2473
448;0.9994111000014527;2473
449;1.001338100000794;2473
450;1.0033955000017158;2472
451;1.0053920000009384;2472
452;1.0073857000006683;2471
453;1.009397900001204;2472
454;1.0113942000007228;2471
455;1.0133997000011732;2471
456;1.0154003000006924;2470
457;1.0173311000016838;2470
458;1.0193905000014638;2470
459;1.0213963000005606;2469
460;1.0234000000000378;2469
461;1.0254331000014645;2468
462;1.0274068000016996;2467
463;1.0294146000014734;2467
464;1.0314147000008234;2466
465;1.0334160000002157;2466
466;1.035462900001221;2466
467;1.0374358000008215;2466
468;1.039429000000382;2465
469;1.0414342000003671;2465
470;1.0434646000012435;2465
471;1.0454642000004242;2465
472;1.0474704000007478;2464
473;1.0494396000012784;2464
474;1.0514657000003353;2463
475;1.0534665000013774;2463
476;1.0554323000014847;2462
477;1.0574168000002828;2462
478;1.059427100000903;2462
479;1.0624357000015152;2461
480;1.0644237000014982;2461
481;1.0674279000013485;2460
482;1.069436300000234;2460
483;1.0714455000015732;2460
484;1.073513000001185;2459
485;1.0754467000006116;2459
486;1.0774404000003415;2458
487;1.0794442000005802;2458
488;1.0814530000006926;2457
489;1.0834365000009711;2457
490;1.0864487000017107;2456
491;1.088443400001779;2456
492;1.0904518000006647;2455
493;1.0924404000015784;2455
494;1.0944423000000825;2455
495;1.096453800000745;2455
496;1.0985303000015847;2454
497;1.1014678999999887;2454
498;1.103469600000608;2453
499;1.1054568000017753;2453
500;1.107456400000956;2453
501;1.1094619000014063;2452
502;1.1115784000012354;2451
503;1.1144516000003932;2451
504;1.1164392000009684;2450
505;1.118432400000529;2450
506;1.120427900001232;2449
507;1.1224329000015132;2449
508;1.1244209000014962;2449
509;1.12740980000126;2449
510;1.1294281000009505;2448
511;1.1314243000015267;2448
512;1.133397600000535;2447
513;1.135432300001412;2447
514;1.1374142000004213;2446
515;1.1394090000012511;2446
516;1.141448300000775;2445
517;1.1434106000015163;2445
518;1.1454162000009092;2445
519;1.1474113000003854;2444
520;1.14941220000037;2444
521;1.1514222000005248;2444
522;1.1544307000003755;2443
523;1.1564162000013312;2443
524;1.1594581000008475;2442
525;1.1614315000006172;2441
526;1.1635200000000623;2441
527;1.165428400001474;2441
528;1.1673583000010694;2440
529;1.1694440000010218;2440
530;1.172473100001298;2440
531;1.174426500001573;2439
532;1.177477800001725;2438
533;1.1794618000003538;2438
534;1.1814876000007644;2437
535;1.1834227000017563;2437
536;1.1864606000017375;2436
537;1.1884436000000278;2436
538;1.1903245000012248;2435
539;1.192328400000406;2435
540;1.1944305000015447;2434
541;1.19643730000098;2434
542;1.1984380000012607;2434
543;1.2004401000012876;2434
544;1.2024357000009331;2433
545;1.2044402999999875;2433
546;1.2064457000014954;2432
547;1.20844660000148;2432
548;1.2104916000007506;2431
549;1.2134435000007215;2431
550;1.2155002000017703;2430
551;1.218579200000022;2429
552;1.221529600001304;2429
553;1.2244426000015665;2428
554;1.2264474000003247;2427
555;1.2284462000006897;2426
556;1.2304785000014817;2426
557;1.2324349000009533;2426
558;1.2344384000007267;2425
559;1.236452900000586;2425
560;1.2384582000013324;2424
561;1.2404581000009784;2424
562;1.2424397000013414;2424
563;1.2444361000016215;2423
564;1.2464529000008042;2423
565;1.2484469000009994;2422
566;1.2504383000014059;2422
567;1.2524293000005855;2421
568;1.2544691000002786;2421
569;1.2564663000011933;2421
570;1.258421600001384;2421
571;1.2614258000012342;2420
572;1.2644027000005735;2419
573;1.2664043000004312;2419
574;1.2684605000013107;2419
575;1.270454500001506;2418
576;1.2724557000001369;2418
577;1.2743745000007038;2417
578;1.2764364000013302;2416
579;1.2784340000016527;2416
580;1.280438600000707;2416
581;1.2824339000017062;2415
582;1.2844211000010546;2415
583;1.2874807000007422;2414
584;1.2894276000006357;2414
585;1.2913808000012068;2413
586;1.2934654000000592;2413
587;1.2954797000002145;2413
588;1.2974348000007012;2413
589;1.2994033000013587;2413
590;1.3013917000007496;2412
591;1.3044088000006013;2411
592;1.3064043000013044;2410
593;1.3083676000005653;2410
594;1.310341000000335;2410
595;1.3123114000009082;2409
596;1.3144041000014113;2409
597;1.316390500000125;2408
598;1.3184121000012965;2408
599;1.3204107000001386;2407
600;1.3224009000005026;2407
601;1.324452000000747;2407
602;1.326439600001322;2406
603;1.3284394000002067;2406
604;1.3304381000016292;2406
605;1.3324301000011474;2405
606;1.3344282000016392;2405
607;1.3364255000014964;2405
608;1.3384256000008463;2404
609;1.3413458000013634;2403
610;1.3434369000005972;2402
611;1.3454594000013458;2402
612;1.348498200000904;2401
613;1.3514635999999882;2401
614;1.3534308000016608;2399
615;1.3554343000014342;2399
616;1.3574580000004062;2399
617;1.3594657000012376;2398
618;1.3614649000010104;2397
619;1.3634704000014608;2397
620;1.365458900001613;2397
621;1.3674627000000328;2396
622;1.3694865000015852;2396
623;1.3714629000005516;2396
624;1.3734923000010895;2395
625;1.3754496000001382;2395
626;1.3774542000010115;2395
627;1.3794599000011658;2395
628;1.3815737000004447;2394
629;1.3844775000015943;2394
630;1.38646830000107;2394
631;1.38846950000152;2393
632;1.3904317000014998;2393
633;1.393431700000292;2392
634;1.3954312000005302;2392
635;1.397431700001107;2391
636;1.400449500000832;2391
637;1.4034652000009373;2390
638;1.4054709000010916;2390
639;1.4074314000008599;2389
640;1.4104507000010926;2389
641;1.4134513000008155;2389
642;1.416460400001597;2388
643;1.4184629000010318;2387
644;1.4204620000000432;2387
645;1.4224251000014192;2387
646;1.4244250000010652;2386
647;1.427404400001251;2386
648;1.429405200000474;2385
649;1.431408400001601;2385
650;1.433425300001545;2385
651;1.4354073000013159;2384
652;1.4374483000010514;2384
653;1.4394112000009045;2383
654;1.4414102000009734;2383
655;1.4434205000015936;2383
656;1.4464161000014428;2382
657;1.448435200001768;2381
658;1.4504039000003104;2381
659;1.4524476000005961;2381
660;1.4545247000005475;2380
661;1.4564818000017112;2380
662;1.458463600001778;2379
663;1.460442300000068;2379
664;1.4624964000013279;2378
665;1.4644916000015655;2378
666;1.4664737000002788;2377
667;1.4684315000013157;2377
668;1.4704461000001174;2377
669;1.4725024000017584;2377
670;1.4744468000008055;2376
671;1.4764758000001166;2376
672;1.478432400001111;2376
673;1.481438500000877;2375
674;1.4834244000012404;2375
675;1.4854426000001695;2374
676;1.4874541000008321;2374
677;1.4894534000013664;2374
678;1.4914385000010952;2374
679;1.4934468999999808;2373
680;1.4965089000015723;2373
681;1.498494400000709;2372
682;1.5004908000009891;2372
683;1.5035563000001275;2372
684;1.5065547000012884;2371
685;1.5095682000010129;2371
686;1.5125765000011597;2370
687;1.5155479000004561;2369
688;1.5184910000007221;2369
689;1.5205022000009194;2368
690;1.5235447000013664;2368
691;1.5265140000010433;2367
692;1.5284844000016165;2367
693;1.5305278000014368;2366
694;1.53248430000167;2366
695;1.534485100000893;2366
696;1.5364829000009195;2366
697;1.53845690000162;2365
698;1.5403518000002805;2365
699;1.542445700000826;2364
700;1.5444385000009788;2364
701;1.5463901000002807;2364
702;1.5484430000014981;2363
703;1.5514476000007562;2363
704;1.5534667000010813;2362
705;1.5554734000015742;2362
706;1.5573751000010816;2362
707;1.559309400001439;2361
708;1.5613599000007525;2361
709;1.5634478000010859;2361
710;1.5655052000001888;2360
711;1.5684645000001183;2360
712;1.570439200000692;2360
713;1.5724664000008488;2360
714;1.5744730000005802;2359
715;1.5764706000009028;2359
