;time;amplitude
0;0.004614400000718888;2401
1;0.00962920000165468;2401
2;0.014631400001235306;2401
3;0.019608800001151394;2400
4;0.02405900000121619;2400
5;0.02870250000160013;2400
6;0.0324298000014096;2400
7;0.037755900000775;2401
8;0.041088900001341244;2401
9;0.04571180000129971;2401
10;0.049489100001665065;2402
11;0.05365720000008878;2401
12;0.058122200000070734;2402
13;0.06263200000103097;2402
14;0.06642730000021402;2402
15;0.0706201000011788;2402
16;0.07544240000061109;2402
17;0.0805915000000823;2402
18;0.08567540000149165;2403
19;0.09017100000164646;2403
20;0.09474770000088029;2403
21;0.09938020000117831;2404
22;0.10349070000120264;2404
23;0.10698970000157715;2405
24;0.11099960000137798;2405
25;0.11533150000104797;2405
26;0.11948150000171154;2405
27;0.1231035000000702;2405
28;0.12688140000136627;2406
29;0.13038420000157203;2406
30;0.13448810000045341;2406
31;0.1396098000004713;2406
32;0.1439159000001382;2407
33;0.14741810000123223;2407
34;0.15144650000002002;2407
35;0.15526150000005146;2408
36;0.159532700001364;2409
37;0.16352420000112033;2409
38;0.1674700000003213;2410
39;0.1714999000014359;2410
40;0.1754969000012352;2410
41;0.18052150000039546;2410
42;0.18451679999998305;2410
43;0.18834500000048138;2411
44;0.19246560000101454;2411
45;0.1964402000012342;2411
46;0.20049870000002556;2412
47;0.2045129000016459;2412
48;0.20793030000095314;2412
49;0.2119901000005484;2413
50;0.21645210000133375;2414
51;0.22047920000113663;2414
52;0.22403850000046077;2415
53;0.227384499999971;2415
54;0.23241950000010547;2415
55;0.23635840000133612;2415
56;0.24101820000032603;2415
57;0.24412190000111877;2416
58;0.24842080000053102;2417
59;0.25191950000044017;2417
60;0.25491110000075423;2418
61;0.2578791000014462;2418
62;0.2607975999999326;2419
63;0.263750500000242;2419
64;0.26674370000000636;2420
65;0.2703285000006872;2420
66;0.2738533000010648;2421
67;0.2784053000013955;2421
68;0.2822061000006215;2422
69;0.2863061000007292;2422
70;0.2898255000000063;2422
71;0.29432830000041577;2423
72;0.2983096000007208;2423
73;0.3007597000014357;2424
74;0.30373580000014044;2424
75;0.3067254000015964;2424
76;0.3099822000003769;2425
77;0.31297340000128315;2425
78;0.3155185000014171;2425
79;0.3185196000013093;2425
80;0.3207108000005974;2426
81;0.3237243000003218;2427
82;0.32670040000084555;2427
83;0.32976180000150634;2427
84;0.3332521000011184;2428
85;0.33727190000172413;2429
86;0.34126629999991565;2429
87;0.3452387000015733;2430
88;0.34767270000156714;2431
89;0.3506879000015033;2431
90;0.353692200000296;2432
91;0.3561892000016087;2432
92;0.3603763999999501;2433
93;0.36321590000079595;2434
94;0.3672561000003043;2434
95;0.3713403000001563;2435
96;0.3753598000002967;2435
97;0.37924050000037823;2436
98;0.38325500000064494;2437
99;0.38723750000099244;2437
100;0.3912212000013824;2438
101;0.39526020000084827;2439
102;0.3992551999999705;2439
103;0.40325140000095416;2440
104;0.4068416000009165;2440
105;0.4097467999999935;2441
106;0.4116042000005109;2441
107;0.4136132000003272;2441
108;0.4169582000013179;2441
109;0.41993340000044554;2441
110;0.42273520000162534;2442
111;0.42565690000083123;2442
112;0.4287858000006963;2443
113;0.4319939000015438;2443
114;0.43497860000024957;2443
115;0.4378558000007615;2443
116;0.4409588000016811;2444
117;0.44398090000140655;2445
118;0.446980300001087;2445
119;0.4499816000006831;2445
120;0.4529814000015904;2446
121;0.45582830000057584;2446
122;0.4589761000006547;2447
123;0.4619810000003781;2447
124;0.4649739000014961;2447
125;0.4679792000006273;2448
126;0.47098860000005516;2448
127;0.4739686000011716;2449
128;0.47696410000025935;2449
129;0.4799596000011661;2449
130;0.48295620000135386;2449
131;0.4859563000009075;2450
132;0.4889896000004228;2450
133;0.4919573000006494;2450
134;0.4949501000010059;2451
135;0.49796540000170353;2451
136;0.5009585000007064;2451
137;0.5039523000014015;2451
138;0.5069718000013381;2451
139;0.5099551000002975;2451
140;0.5129501999999775;2452
141;0.5159440000006725;2452
142;0.518922900000689;2452
143;0.5219301000015548;2452
144;0.5249401000000944;2452
145;0.5279313000010006;2452
146;0.5309266000003845;2453
147;0.5338262000004761;2453
148;0.536824600001637;2453
149;0.5396620999999868;2453
150;0.5429101000008814;2454
151;0.5459020000016608;2454
152;0.5489099000005808;2454
153;0.5519493000010698;2454
154;0.5549312000002828;2454
155;0.5579250999999203;2454
156;0.5609416000006604;2454
157;0.5639322000006359;2455
158;0.5669308000015008;2455
159;0.5699406000003364;2455
160;0.5726744000003237;2455
161;0.5759258000016416;2455
162;0.5789278000011109;2456
163;0.5819344999999885;2456
164;0.584928400001445;2456
165;0.5876667000011366;2456
166;0.5909492999999202;2456
167;0.5939313000017137;2456
168;0.5968296999999438;2456
169;0.59993570000006;2456
170;0.6029417000008834;2455
171;0.6059686000007787;2455
172;0.6089432000007946;2455
173;0.6119047000011051;2455
174;0.6149219000017183;2455
175;0.6179406000010204;2455
176;0.6209388000006584;2454
177;0.6239331000015227;2454
178;0.6269326000001456;2454
179;0.6299437000016042;2454
180;0.6329310000000987;2454
181;0.6359270000011747;2453
182;0.6389441000010265;2453
183;0.6419388000012987;2453
184;0.6446864000008645;2453
185;0.6476280000006227;2453
186;0.6507338999999774;2453
187;0.6537934000007226;2453
188;0.6566173000010167;2453
189;0.6594916000012745;2453
190;0.6617171000016242;2452
191;0.6652980000017124;2452
192;0.6692448000012519;2452
193;0.6728892000010092;2452
194;0.6772761000011087;2452
195;0.6812507000013284;2451
196;0.6852592000013829;2451
197;0.6892712000008032;2450
198;0.6922445000000153;2450
199;0.6962843000001158;2450
200;0.7002483000014763;2449
201;0.7042754000012792;2449
202;0.7082932000012079;2449
203;0.7122671000015544;2449
204;0.7162798000008479;2448
205;0.7202821000009862;2448
206;0.7241762000012386;2447
207;0.7282121000007464;2447
208;0.732088400000066;2447
209;0.7351481000005151;2447
210;0.7392930000005435;2446
211;0.7431862000012188;2446
212;0.7472551000009844;2446
213;0.7512272000003577;2445
214;0.7548686000009184;2445
215;0.7575603000004776;2445
216;0.7595936000016081;2445
217;0.7615804000015487;2444
218;0.763697600001251;2444
219;0.765622800001438;2444
220;0.7686897000003228;2444
221;0.770759500001077;2443
222;0.7737412000005861;2443
223;0.7771202000003541;2443
224;0.7796242000003986;2442
225;0.781512900000962;2442
226;0.7835259000003134;2442
227;0.7855374999999185;2441
228;0.7875299000006635;2441
229;0.7895562000012433;2441
230;0.7915958000012324;2441
231;0.794689100001051;2441
232;0.7976108000002569;2440
233;0.8006743000005372;2440
234;0.8025000000016007;2440
235;0.8046341000008397;2440
236;0.8066201000001456;2439
237;0.8095610000000306;2439
238;0.8115838000012445;2439
239;0.8136073000005126;2439
240;0.8155755000007048;2438
241;0.8175931000005221;2438
242;0.8196235000013985;2438
243;0.82164290000037;2438
244;0.8236734000001888;2438
245;0.8256772000004275;2437
246;0.8286825000013778;2437
247;0.8307156999999279;2437
248;0.832882900000186;2436
249;0.8356495000007271;2436
250;0.8376017000009597;2435
251;0.8395959000008588;2435
252;0.8415818000012223;2435
253;0.843548800001372;2435
254;0.8455383000000438;2435
255;0.8474660000010772;2434
256;0.8496119000010367;2434
257;0.8516108000003442;2433
258;0.8535500000016327;2433
259;0.855577500000436;2433
260;0.8574513000003208;2433
261;0.8595131000001857;2433
262;0.8615141000009316;2433
263;0.8636260000002949;2432
264;0.8655171000009432;2432
265;0.8675228000010975;2432
266;0.8696259000007558;2432
267;0.871571200001199;2432
268;0.8735104000006686;2431
269;0.8755556000014622;2430
270;0.8774714000010135;2430
271;0.8796379000013985;2430
272;0.8814443999999639;2430
273;0.8834890000016458;2430
274;0.885488300000361;2429
275;0.8874512000002142;2428
276;0.8894668000011734;2428
277;0.891533600000912;2428
278;0.8934828000001289;2428
279;0.8956452000002173;2427
280;0.8974432000013621;2427
281;0.8994872000002943;2427
282;0.9015836000016861;2426
283;0.9034875000015745;2426
284;0.9055048000009265;2426
285;0.907561900001383;2426
286;0.9095108000001346;2426
287;0.9135631000008289;2425
288;0.9155543000015314;2425
289;0.9175157000008767;2424
290;0.9195305000012013;2424
291;0.9215541000012308;2424
292;0.9235142000015912;2424
293;0.9255685000007361;2424
294;0.9274678000001586;2423
295;0.929487400000653;2422
296;0.9315275000008114;2422
297;0.9335152000003291;2422
298;0.9355326000004425;2422
299;0.9376533000013296;2422
300;0.9407359000015276;2421
301;0.9436448000014934;2421
302;0.9456169000004593;2420
303;0.9476287000015873;2420
304;0.9496008000005531;2420
305;0.9514963000001444;2420
306;0.9535669000015332;2419
307;0.9555810000001657;2419
308;0.9575276000014128;2419
309;0.9594672000002902;2419
310;0.9614518000016687;2418
311;0.9635326000006899;2418
312;0.9655011000013474;2418
313;0.9674734000000171;2417
314;0.9694657000000007;2417
315;0.971578300001056;2417
316;0.973485400001664;2417
317;0.975489500000549;2416
318;0.9774596000006568;2416
319;0.9795163000017055;2416
320;0.9815874000014446;2416
321;0.9835148000001936;2415
322;0.9855547000006482;2415
323;0.9875194000014744;2415
324;0.9895388000004459;2415
325;0.9915599000014481;2415
326;0.9935949999999139;2414
327;0.9955033000005642;2414
328;0.997490600000674;2414
329;0.9994688000006136;2414
330;1.0014350000001286;2414
331;1.0034445000001142;2414
332;1.005496600000697;2413
333;1.0074605000008887;2413
334;1.0094068000016705;2413
335;1.0114161000001332;2412
336;1.0134035000010044;2412
337;1.0154539000013756;2412
338;1.0174224000002141;2412
339;1.019433500001469;2411
340;1.021536100000958;2411
341;1.0235785000004398;2411
342;1.025464500000453;2410
343;1.027582100001382;2410
344;1.0295406000004732;2410
345;1.031498800000918;2410
346;1.0335109000006923;2409
347;1.0354698999999528;2410
348;1.0375251000004937;2409
349;1.0395111000016186;2409
350;1.041552500000762;2409
351;1.0435421000001952;2408
352;1.0455782000008185;2408
353;1.047506600001725;2408
354;1.0494643000001815;2408
355;1.0514719000002515;2407
356;1.0535566000016843;2407
357;1.0555468000002293;2407
358;1.0575394000006781;2407
359;1.0595281000005343;2407
360;1.0615153000017017;2406
361;1.0635698000005505;2406
362;1.0654802000008203;2406
363;1.0674902000009752;2406
364;1.069434300001376;2406
365;1.0716728000006697;2405
366;1.0735289000003831;2405
367;1.0755181000004086;2405
368;1.077488800001447;2405
369;1.0794427000000724;2404
370;1.0814944000012474;2404
371;1.0834700000013981;2404
372;1.0854793000016798;2404
373;1.0874664000002667;2404
374;1.0894509000008838;2404
375;1.0913921000010305;2404
376;1.0935474000016256;2403
377;1.0954639000010502;2403
378;1.0976170000012644;2403
379;1.099508400000559;2403
380;1.1015712000007625;2403
381;1.1035478000012517;2403
382;1.105526800000007;2402
383;1.1074955000003683;2402
384;1.1095171000015398;2402
385;1.111611800000901;2402
386;1.1135905000010098;2402
387;1.1155318000000989;2402
388;1.1175464000007196;2401
389;1.1195637000000715;2401
390;1.1215890000003128;2401
391;1.1235976000007213;2401
392;1.1265945000013744;2401
393;1.1286337000001367;2400
394;1.1306022000007943;2400
395;1.1325773000007757;2400
396;1.1345326000009663;2400
397;1.1365916000013385;2401
398;1.1395054000004166;2401
399;1.141565100000662;2400
400;1.1436180000000604;2400
401;1.1455273999999918;2400
402;1.1475556000004872;2400
403;1.1495693000015308;2400
404;1.1515595000000758;2400
405;1.1535362000013265;2400
406;1.155426000001171;2400
407;1.1574113000006037;2399
408;1.1594193000000814;2400
409;1.1614130000016303;2399
410;1.1633762000001298;2399
411;1.1654358000014327;2399
412;1.1674001000010321;2399
413;1.1694428000009793;2399
414;1.1716203000014502;2399
415;1.1736428000003798;2399
416;1.1755714000009903;2399
417;1.1776200000003882;2399
418;1.1795695000000705;2399
419;1.1816049000008206;2399
420;1.183638400001655;2399
421;1.1855650000015885;2399
422;1.1875393000009353;2399
423;1.1895474000011745;2399
424;1.1915849000015442;2399
425;1.1935014000009687;2399
426;1.1954984000003606;2399
427;1.1975021000016568;2399
428;1.1996073000009346;2400
429;1.2015212000005704;2400
430;1.2035408000010648;2400
431;1.2055064000014681;2399
432;1.2075531000009505;2399
433;1.2095953000007285;2399
434;1.2115407000001142;2399
435;1.2135849000005692;2399
436;1.2155458000015642;2399
437;1.2175748000008753;2399
438;1.2196005000005243;2399
439;1.2226007000008394;2400
440;1.2245934000002308;2400
441;1.2265976000016963;2400
442;1.2285886000008759;2400
443;1.2305518000011944;2400
444;1.2324704000002384;2400
445;1.2345348000017111;2401
446;1.2364620000007562;2401
447;1.2384337000003143;2401
448;1.240480899999966;2401
449;1.242448200000581;2401
450;1.2444813000001886;2401
451;1.2464957000011054;2401
452;1.248451200001;2402
453;1.2504365000004327;2402
454;1.252445500000249;2402
455;1.254473599999983;2402
456;1.2566087000013795;2402
457;1.2596261000016966;2402
458;1.261602700000367;2402
459;1.26463750000039;2402
460;1.266618900001049;2402
461;1.2697982000008778;2402
462;1.2726322000016808;2402
463;1.2746189000008599;2403
464;1.2766126000005897;2403
465;1.2785860000003595;2403
466;1.2804263000016363;2403
467;1.282554200000959;2403
468;1.28445180000017;2403
469;1.2866310000008525;2403
470;1.2886111000007077;2404
471;1.2906135000012;2404
472;1.2928208000012091;2404
473;1.2956253000011202;2404
474;1.2975982000007207;2404
475;1.2996543000008387;2404
476;1.3016400000014983;2404
477;1.3035580000014306;2405
478;1.3055980000008276;2405
479;1.3076264999999694;2405
480;1.3106096000010439;2405
481;1.3125894000004337;2406
482;1.31474850000086;2406
483;1.317658300000403;2406
484;1.31972720000158;2406
485;1.3228079000000434;2406
486;1.3257587000007334;2406
487;1.329123500001515;2407
488;1.3316590000013093;2407
489;1.3336030000009487;2408
490;1.3354567000005773;2408
491;1.3375279000010778;2408
492;1.3395290000007662;2408
493;1.3415179000003263;2408
494;1.343649300000834;2409
495;1.345585300001403;2409
496;1.347523899999942;2409
497;1.349526700001661;2409
498;1.351536699999997;2409
499;1.353498500000569;2410
500;1.3555175000001327;2410
501;1.35759550000148;2411
502;1.3595313000005262;2411
503;1.361561100000472;2411
504;1.3635226000005787;2411
505;1.365561600001456;2411
506;1.367529300001479;2411
507;1.3695590000006632;2411
508;1.3715846000013698;2412
509;1.373550800000885;2412
510;1.3755307999999786;2412
511;1.3775835000014922;2412
512;1.3796844000007695;2413
513;1.3815788000010798;2413
514;1.3835749000008946;2413
515;1.38550480000049;2413
516;1.3875280000011116;2414
517;1.3894833000013023;2414
518;1.3915057000012894;2414
519;1.393561700000646;2414
520;1.395555000000968;2415
521;1.397612200000367;2415
522;1.399542900000597;2415
523;1.401536400000623;2415
524;1.4036570000007487;2416
525;1.4054738000013458;2416
526;1.407532800001718;2416
527;1.4095876000010321;2417
528;1.4115849000008893;2417
529;1.4135537000001932;2417
530;1.4155340000015713;2417
531;1.4176530000004277;2417
532;1.4195880000006582;2418
533;1.4218823000010161;2418
534;1.4247475000011036;2418
535;1.4277162000016688;2419
536;1.4307586000013544;2418
537;1.4336880000009842;2419
538;1.4367674000004627;2420
539;1.4397743000008631;2420
540;1.4429516000000149;2420
541;1.4455833000010898;2421
542;1.4487254000014218;2421
543;1.4517757000012352;2421
544;1.4547490000004473;2422
545;1.4577386000000843;2422
546;1.4605467000001227;2422
547;1.4626486000015575;2423
548;1.464523000000554;2423
549;1.466610600000422;2424
550;1.468643100000918;2424
551;1.470498000000589;2424
552;1.4724776000002748;2424
553;1.4745305000014923;2425
554;1.4764815000016824;2425
555;1.478534200001377;2425
556;1.4804194000007556;2425
557;1.4825354000004154;2425
558;1.4844925000015792;2426
559;1.4865079000010155;2426
560;1.4884318000003987;2426
561;1.4905183000009856;2427
562;1.492612600000939;2427
563;1.4946642000013526;2427
564;1.4967331000007107;2427
565;1.4996210000008432;2428
566;1.5026382000014564;2429
567;1.5046559000002162;2429
568;1.506557700000485;2429
569;1.5086370000008174;2429
570;1.5105992000007973;2430
571;1.5125717999999324;2430
572;1.51459960000102;2430
573;1.5165542000013374;2431
574;1.5185393000010663;2431
575;1.5206076000013127;2431
576;1.5225241000007372;2432
577;1.524616300001071;2432
578;1.526565500000288;2432
579;1.5286058000001503;2432
580;1.531603500001438;2432
581;1.5336773000017274;2433
582;1.5356019000009837;2433
583;1.5376408000010997;2433
584;1.5395481000014115;2434
585;1.5416269000015745;2434
586;1.5436093000007531;2434
587;1.5466490000017075;2435
588;1.548656500001016;2435
589;1.5506345000012516;2435
590;1.552614900001572;2436
591;1.554596700001639;2437
592;1.5566297000004852;2437
593;1.5588254000012967;2437
594;1.5618129000013141;2438
595;1.5648140000012063;2438
596;1.5678164000000834;2439
597;1.5708465000006981;2439
598;1.5738552000002528;2439
599;1.576844600000186;2440
600;1.5798546000005445;2440
601;1.5828427000014926;2441
602;1.585852000000159;2441
603;1.5888218000000052;2442
604;1.5918427000015072;2442
605;1.5948428000010608;2443
606;1.5978456000011647;2444
607;1.6006446999999753;2445
608;1.6038495000011608;2445
609;1.6068489000008412;2445
610;1.6098493000008602;2445
611;1.6128427000003285;2446
612;1.6158143000011478;2446
613;1.6188514000004943;2446
614;1.6218542000005982;2447
615;1.6248518000011245;2447
616;1.6278549000016937;2447
617;1.6308521000009932;2448
618;1.6336797000003571;2448
619;1.63664240000071;2449
620;1.638639200000398;2450
621;1.6407087000006868;2450
622;1.642630199999985;2450
623;1.6457131000006484;2451
624;1.6476206000006641;2451
625;1.64962640000158;2451
626;1.6527084000008472;2451
627;1.6546195000009902;2451
628;1.6565618000004179;2452
629;1.6586683000004996;2452
630;1.6616975000015373;2452
631;1.6646290000007866;2452
632;1.6666798000005656;2452
633;1.668972900000881;2453
634;1.6721552000017255;2453
635;1.6750565000002098;2453
636;1.6779445000011037;2453
637;1.6809799000002386;2454
638;1.6839699000011024;2454
639;1.6869776000003185;2454
640;1.6896712000016123;2455
641;1.6929192000006879;2455
642;1.6959266000012576;2455
643;1.698927100000219;2455
644;1.7019607000001997;2456
645;1.7049598000012338;2456
646;1.7079560000001948;2456
647;1.7106127000006381;2455
648;1.713956400000825;2455
649;1.7169532000007166;2455
650;1.7199569000003976;2456
651;1.7226144000014756;2456
652;1.7258760000004258;2457
653;1.728918300001169;2456
654;1.7319554000005155;2457
655;1.7349591000001965;2457
656;1.737953200001357;2457
657;1.7409279000003153;2456
658;1.7436086000016076;2456
659;1.746722600000794;2456
660;1.7497180000009394;2456
661;1.7516137000002345;2456
662;1.7547079000014492;2456
663;1.7566221000015503;2456
664;1.7597061000014946;2456
665;1.76270680000016;2456
666;1.7657384000012826;2456
667;1.769344500000443;2456
668;1.772810300000856;2456
669;1.7772520000016812;2456
670;1.7812554000011005;2456
671;1.785252000001492;2456
672;1.788826900001368;2457
673;1.7922765000002983;2456
674;1.7960650000004534;2456
675;1.7988774000004923;2456
676;1.802040800001123;2456
677;1.8047796999999264;2456
678;1.8079277000015281;2455
679;1.8109218000008696;2456
680;1.8139294000011432;2456
681;1.8170120000013412;2456
682;1.8199197000012646;2456
683;1.822608800001035;2456
684;1.8258455000013782;2456
685;1.8288861000000907;2456
686;1.8318558999999368;2456
687;1.8348642000000837;2456
688;1.8376481000013882;2456
689;1.8395245000010618;2456
690;1.841623400001481;2456
691;1.8435465000002296;2456
692;1.8455917999999656;2456
693;1.8476065000013477;2456
694;1.8496242000001075;2456
695;1.8515336000000389;2455
696;1.8535413000008703;2455
697;1.8554969000015262;2455
698;1.8575751000007585;2455
699;1.8594504000011511;2455
700;1.8614541000006284;2455
701;1.8634684000007837;2455
702;1.8654747000000498;2454
703;1.8675090000015189;2454
704;1.8695316000012099;2455
705;1.8714481000006344;2455
706;1.8734235000010813;2455
707;1.875409900001614;2455
708;1.877481200001057;2454
709;1.8794614000016736;2454
710;1.8814500000007683;2454
711;1.883610700000645;2454
712;1.8855183000014222;2453
713;1.8875387000007322;2453
714;1.8896568000000116;2453
715;1.8915468000013789;2453
716;1.8934207000002061;2453
717;1.8954487000009976;2452
718;1.8974569000001793;2452
