;time;amplitude
0;0.00512689999959548;2409
1;0.009592300000804244;2409
2;0.013615900001241243;2410
3;0.019149300000208314;2410
4;0.024266600001283223;2411
5;0.02911620000122639;2412
6;0.03353390000120271;2413
7;0.037733299999672454;2413
8;0.041006400000696885;2414
9;0.04451520000111486;2415
10;0.04750469999999041;2415
11;0.0512789000003977;2415
12;0.05428070000016305;2416
13;0.05695150000065041;2416
14;0.060215100000277744;2416
15;0.06320460000097228;2416
16;0.06622310000057041;2417
17;0.06928660000085074;2417
18;0.0722937999998976;2418
19;0.07527990000016871;2418
20;0.07813929999974789;2419
21;0.0809294000009686;2419
22;0.08320389999971667;2420
23;0.08620599999994738;2421
24;0.08921040000132052;2421
25;0.09202689999983704;2422
26;0.09529990000010002;2422
27;0.09826820000125736;2423
28;0.10126470000068366;2423
29;0.10427689999960421;2423
30;0.10685470000134956;2424
31;0.10927810000066529;2425
32;0.112281300000177;2425
33;0.11528490000091551;2426
34;0.11827160000029835;2426
35;0.12126790000002075;2427
36;0.12397520000013174;2428
37;0.12727640000048268;2428
38;0.1302618000008806;2429
39;0.13325170000098296;2429
40;0.13626560000011523;2430
41;0.1392374999995809;2431
42;0.14226100000087172;2431
43;0.1452673000003415;2432
44;0.14826080000057118;2432
45;0.1512390999996569;2433
46;0.15425820000018575;2434
47;0.15694120000080147;2435
48;0.158850200001325;2435
49;0.16083550000075775;2436
50;0.1628299000003608;2436
51;0.16485480000119423;2436
52;0.1668788000006316;2436
53;0.1688415000007808;2437
54;0.17088320000038948;2437
55;0.1738526000008278;2438
56;0.17716509999991104;2439
57;0.18018360000132816;2439
58;0.18315749999965192;2440
59;0.18607650000012654;2440
60;0.18881810000129917;2441
61;0.19204180000087945;2441
62;0.19523190000109025;2441
63;0.19843010000113281;2442
64;0.20204019999982847;2442
65;0.2055528000000777;2443
66;0.20946350000122038;2444
67;0.21347910000076809;2444
68;0.21747710000090592;2445
69;0.22044280000045546;2446
70;0.22399530000075174;2446
71;0.2274256000000605;2446
72;0.23147890000109328;2447
73;0.23548459999983606;2448
74;0.23947399999997288;2449
75;0.24244400000134192;2449
76;0.24647250000089116;2450
77;0.24995430000126362;2451
78;0.2528963000004296;2451
79;0.2548934000005829;2451
80;0.2568410000003496;2452
81;0.2601696000001539;2452
82;0.2633975000007922;2453
83;0.26639670000076876;2453
84;0.26938239999981306;2454
85;0.27354680000098597;2455
86;0.27746839999963413;2455
87;0.2809121000009327;2456
88;0.2844383999999991;2456
89;0.28848420000031183;2457
90;0.29251380000096106;2457
91;0.29640699999981734;2458
92;0.29906040000059875;2458
93;0.3019794000010734;2459
94;0.3051621000013256;2459
95;0.3081921000011789;2459
96;0.31119180000132474;2459
97;0.31415060000108497;2459
98;0.3172167000011541;2459
99;0.32020879999981844;2460
100;0.32319319999987783;2460
101;0.3262080000004062;2460
102;0.32920500000000175;2461
103;0.33220690000052855;2461
104;0.3352106000002095;2462
105;0.33820940000077826;2462
106;0.3412076000004163;2462
107;0.343782400001146;2462
108;0.34720759999981965;2463
109;0.3502086999997118;2463
110;0.3532117000013386;2463
111;0.35620840000046883;2464
112;0.35920079999959853;2464
113;0.3618973000011465;2464
114;0.3637852000010753;2465
115;0.3657689000010578;2465
116;0.36781490000066697;2465
117;0.3698227000004408;2465
118;0.37283750000096916;2465
119;0.37514420000115933;2465
120;0.3783346000000165;2465
121;0.381355600000461;2465
122;0.38438440000027185;2466
123;0.3883791000007477;2466
124;0.39086110000062035;2467
125;0.39289260000077775;2467
126;0.394896300000255;2467
127;0.39685869999993884;2467
128;0.39888910000081523;2467
129;0.4022216000012122;2467
130;0.40518150000025344;2467
131;0.4082154999996419;2467
132;0.41087810000135505;2467
133;0.41282549999959883;2467
134;0.41592510000009497;2467
135;0.41772169999967446;2467
136;0.41990400000031514;2467
137;0.4218672000006336;2467
138;0.42374000000017986;2467
139;0.4259056999999302;2467
140;0.42789840000114054;2467
141;0.4299036000011256;2468
142;0.4319068000004336;2468
143;0.43391560000054596;2468
144;0.4359001000011631;2468
145;0.4377684000010049;2468
146;0.4398930000006658;2468
147;0.44293760000073235;2468
148;0.44606999999996333;2468
149;0.44909929999994347;2468
150;0.45213520000106655;2469
151;0.45509990000027756;2468
152;0.45805790000122215;2468
153;0.4610776999998052;2468
154;0.46408940000037546;2467
155;0.46708659999967495;2467
156;0.4700947000001179;2467
157;0.4730204000006779;2467
158;0.4750184000004083;2467
159;0.47808050000094227;2467
160;0.4810888000010891;2467
161;0.48410640000111016;2467
162;0.4870643000012933;2467
163;0.4900092999996559;2467
164;0.4920947000009619;2467
165;0.4950877999999648;2466
166;0.49806510000053095;2466
167;0.5010818000009749;2466
168;0.5040676999997231;2465
169;0.5068435000011959;2465
170;0.5090077000004385;2465
171;0.5119758000000729;2465
172;0.5155895000007149;2465
173;0.5179225000010774;2465
174;0.5212356000010914;2464
175;0.5239219000013691;2464
176;0.5274151000012353;2464
177;0.5315379000003304;2464
178;0.5354606000000786;2464
179;0.5394773000007262;2463
180;0.5424552000004041;2463
181;0.5464760000013484;2463
182;0.5493937999999616;2462
183;0.5534802000001946;2462
184;0.55692960000124;2462
185;0.5599492000001192;2462
186;0.5629676000007748;2462
187;0.5661932000002707;2461
188;0.5691882999999507;2461
189;0.5721886000010272;2461
190;0.5752184000011766;2460
191;0.5782068000007712;2460
192;0.5809053000011772;2460
193;0.5828634000008606;2459
194;0.5848416999997426;2459
195;0.5867395000004763;2459
196;0.588697700000921;2459
197;0.5907815999999002;2458
198;0.5927904000000126;2458
199;0.5949134000002232;2458
200;0.5969021000000794;2458
201;0.599005500000203;2457
202;0.6020429000000149;2457
203;0.6050623000010091;2457
204;0.6080763999998453;2457
205;0.6110745000005409;2456
206;0.6140716999998403;2456
207;0.6170820000006643;2456
208;0.6200681000009354;2456
209;0.6230408000010357;2456
210;0.625800400001026;2456
211;0.6288972000002104;2455
212;0.6320867000013095;2455
213;0.6350715000007767;2455
214;0.6380693000010069;2454
215;0.6408719999999448;2454
216;0.6440722999996069;2454
217;0.6470803000011074;2453
218;0.6500711000007868;2453
219;0.6530699000013556;2452
220;0.6560712999998941;2452
221;0.6580707000011898;2451
222;0.6610687000011239;2451
223;0.6640650000008463;2451
224;0.6670664000012039;2450
225;0.6700737000010122;2450
226;0.6729183999996167;2450
227;0.6750475000008009;2449
228;0.6780631000001449;2449
229;0.6810640000003332;2448
230;0.6840898000009474;2448
231;0.687069600000541;2447
232;0.6899685999997018;2446
233;0.6920186999996076;2446
234;0.695064800000182;2446
235;0.6980621000002429;2445
236;0.7010616000006848;2444
237;0.7039462000011554;2443
238;0.7060101999995823;2443
239;0.7090828000000329;2443
240;0.7120676000013191;2442
241;0.7150932000004104;2442
242;0.718064200000299;2441
243;0.7210792000005313;2441
244;0.7239329000003636;2440
245;0.7270666000003985;2440
246;0.7300888999998278;2439
247;0.7330763000009028;2439
248;0.7357522000002064;2439
249;0.7379278000007616;2438
250;0.7409537000003183;2437
251;0.7440053999998781;2437
252;0.7458517000013671;2436
253;0.7479280000006838;2436
254;0.7499607000008837;2435
255;0.7530067000006966;2435
256;0.754893200000879;2435
257;0.7567952000008518;2434
258;0.7589917000004789;2434
259;0.7620280999999522;2434
260;0.7649947999998403;2433
261;0.7679888000002393;2433
262;0.7712455000000773;2433
263;0.7739259999998467;2432
264;0.7772354999997333;2431
265;0.7801708999995753;2431
266;0.7828989999998157;2431
267;0.7861905000008846;2430
268;0.7892241999998078;2429
269;0.7922703000003821;2429
270;0.7952309000011155;2428
271;0.7981099999997241;2428
272;0.8012104000008549;2427
273;0.8042087000012543;2427
274;0.8068380000004254;2426
275;0.8102130000006582;2425
276;0.8132079999995767;2425
277;0.816216400000485;2425
278;0.8192187000004196;2424
279;0.8222101000010298;2424
280;0.8252446000005875;2424
281;0.8282185000007303;2423
282;0.8312100000002829;2422
283;0.8342124999999214;2422
284;0.8372063000006165;2422
285;0.8399958999998489;2421
286;0.8432083000006969;2421
287;0.8458805000009306;2420
288;0.8478661000008287;2420
289;0.8498551000011503;2420
290;0.8520105000006879;2419
291;0.8538908999998966;2418
292;0.856023100001039;2418
293;0.8579200000003766;2418
294;0.8610263999999006;2417
295;0.8639994000004663;2417
296;0.8659117999995942;2417
297;0.8690290000013192;2416
298;0.8720045999998547;2416
299;0.8738743000012619;2416
300;0.8769530000008672;2415
301;0.8790758000013739;2415
302;0.8825561000012385;2414
303;0.8866754000009678;2414
304;0.8903900000004796;2413
305;0.8929547000007005;2412
306;0.8964004000008572;2412
307;0.8992629000003944;2411
308;0.9022928000013053;2410
309;0.9053117000003112;2410
310;0.9079366000005393;2409
311;0.9109184000008099;2409
312;0.9142115000013291;2408
313;0.9172383000004629;2407
314;0.920266700000866;2407
315;0.9232169000006252;2407
316;0.9262666000013269;2407
317;0.9292310000000725;2407
318;0.9321759000013117;2406
319;0.9352484999999433;2406
320;0.9382545999997092;2405
321;0.9412776999997732;2405
322;0.9442615000007208;2404
323;0.9472469000011188;2404
324;0.9502472000003763;2403
325;0.9532140999999683;2403
326;0.9559096000011778;2402
327;0.9579540000013367;2402
328;0.961171099999774;2401
329;0.9641883000003872;2401
330;0.9671634000005724;2401
331;0.9701846999996633;2400
332;0.9732444000001124;2399
333;0.9761981999999989;2399
334;0.9792336999998952;2398
335;0.9822335999997449;2398
336;0.9852064000006067;2397
337;0.9882383000003756;2397
338;0.9912070000009408;2397
339;0.9941920000001119;2397
340;0.9971977000004699;2397
341;1.0002244000006613;2396
342;1.0032260999996652;2396
343;1.0061697000001004;2396
344;1.0092299999996612;2395
345;1.0122196000011172;2395
346;1.0152305999999953;2394
347;1.0182310000000143;2394
348;1.0211999000002834;2394
349;1.0242223000004742;2393
350;1.027197299999898;2393
351;1.0301974000012706;2393
352;1.0331947000013315;2393
353;1.0358950999998342;2393
354;1.0392221000001882;2393
355;1.0421932999997807;2393
356;1.0452153000005637;2393
357;1.048196600000665;2392
358;1.0512195000010252;2392
359;1.0542445999999472;2391
360;1.0568577000012738;2391
361;1.060197300001164;2391
362;1.0632291000001715;2391
363;1.0658254000009038;2391
364;1.06826060000094;2390
365;1.0711005000011937;2390
366;1.0738743000001705;2390
367;1.0772038000013708;2389
368;1.0802233000013075;2389
369;1.0832172999998875;2389
370;1.0862170000000333;2389
371;1.0892299999995885;2389
372;1.0922289000009187;2389
373;1.0951992999998765;2388
374;1.0982382000001962;2388
375;1.1012303000006796;2389
376;1.1042027000003145;2388
377;1.106822600000669;2388
378;1.1102258999999322;2388
379;1.1132259000005433;2388
380;1.1162136000002647;2388
381;1.119200400000409;2388
382;1.1222064000012324;2388
383;1.125229200000831;2388
384;1.1280955000001995;2388
385;1.1312276999997266;2389
386;1.1342249999997875;2388
387;1.137223100000483;2388
388;1.1398652999996557;2389
389;1.1432201000006899;2389
390;1.146215700000539;2389
391;1.1492357999995875;2389
392;1.1522168000010424;2389
393;1.1552183000003424;2390
394;1.1582224000012502;2390
395;1.161234000001059;2389
396;1.1642191000009916;2389
397;1.167225099999996;2389
398;1.1702290000012;2390
399;1.1732318000013038;2390
400;1.175875700000688;2390
401;1.1779468000004272;2390
402;1.181026700000075;2391
403;1.18418709999969;2391
404;1.187195000000429;2391
405;1.1899000000012165;2392
406;1.1917959000002156;2392
407;1.1938552000010532;2392
408;1.1971443000002182;2392
409;1.2001438000006601;2391
410;1.203181000000768;2391
411;1.2062478999996529;2392
412;1.209197000000131;2392
413;1.212232400001085;2392
414;1.215243200000259;2392
415;1.2182346000008692;2393
416;1.2212337000000844;2393
417;1.224151600001278;2393
418;1.2272377000008419;2393
419;1.230255100001159;2394
420;1.2332299999998213;2394
421;1.2362401000009413;2394
422;1.23924420000003;2395
423;1.2422440000009374;2395
424;1.2452314000001934;2395
425;1.2482419000007212;2395
426;1.2512375000005704;2395
427;1.2538622000010946;2395
428;1.2568382000008569;2395
429;1.260234400000627;2395
430;1.2632336000006035;2395
431;1.2662276000010024;2396
432;1.2692263000008097;2396
433;1.2722086000012496;2397
434;1.2752317000013136;2397
435;1.2782244000009086;2397
436;1.2812310000008438;2397
437;1.2842215000000579;2398
438;1.287154700001338;2398
439;1.289923700000145;2398
440;1.2931877999999415;2399
441;1.2962177000008523;2399
442;1.2992161000001943;2400
443;1.3022252000009757;2400
444;1.305214400001205;2401
445;1.3082510000003822;2401
446;1.3111893000004784;2402
447;1.3142270999996981;2402
448;1.316847100000814;2402
449;1.3202235999997356;2403
450;1.3231761000006372;2403
451;1.3262301000013395;2403
452;1.3292129000001296;2404
453;1.3320929000001343;2404
454;1.3352166000004217;2405
455;1.3382235000008222;2405
456;1.3412325999997847;2406
457;1.3442202000005636;2406
458;1.3472180000007938;2407
459;1.350228999999672;2407
460;1.353221700001086;2408
461;1.356179800000973;2408
462;1.3592387000007875;2409
463;1.3622167000012269;2409
464;1.365222000000358;2409
465;1.368233600000167;2410
466;1.3712181000009878;2410
467;1.3742187999996531;2410
468;1.377226900000096;2411
469;1.379818700001124;2411
470;1.3832500000007713;2412
471;1.3862159000000247;2412
472;1.389231799999834;2413
473;1.3922201000004861;2413
474;1.3951126000010845;2414
475;1.3981765000007726;2415
476;1.4010921000008238;2415
477;1.4040482000000338;2416
478;1.4068748999998206;2416
479;1.4089215000003605;2416
480;1.4120488999997178;2417
481;1.415053099999568;2417
482;1.4180536000003485;2418
483;1.4212860000006913;2418
484;1.4242169999997714;2419
485;1.4269450000010693;2419
486;1.4302586000012525;2420
487;1.433476399999563;2421
488;1.436314599999605;2421
489;1.4400351000003866;2421
490;1.4429732000007789;2422
491;1.4462627000011707;2423
492;1.4491943000011815;2423
493;1.4523265000007086;2423
494;1.4552897000012308;2424
495;1.458229100000608;2424
496;1.4612893000012264;2425
497;1.4642854000012449;2426
498;1.4672826000005443;2426
499;1.470301200000904;2427
500;1.473243899999943;2427
501;1.4762982000011107;2428
502;1.479258800000025;2428
503;1.4822694000013144;2429
504;1.4852355000002717;2430
505;1.4882128000008379;2430
506;1.4912328999998863;2431
507;1.4942202000001998;2431
508;1.497222600000896;2431
509;1.5002192000010837;2432
510;1.5032248000006803;2432
511;1.5059588000003714;2433
512;1.5089626000008138;2433
513;1.5129945000007865;2434
514;1.5163016000005882;2435
515;1.5193166000008205;2435
516;1.5223220999996556;2436
517;1.525354999999763;2436
518;1.528301600001214;2437
519;1.5311682999999903;2437
520;1.5341733000004751;2438
521;1.5370694000012008;2438
522;1.5398588999996718;2438
523;1.543132599999808;2439
524;1.5461074000013468;2439
525;1.5491344000001845;2440
526;1.55218160000004;2441
527;1.5551726000012422;2441
528;1.558195200001137;2441
529;1.5611800000006042;2442
530;1.5641752000010456;2443
531;1.5671780000011495;2443
532;1.5701832000013383;2444
533;1.5731427000009717;2444
534;1.576147600000695;2445
535;1.5791411000009248;2446
536;1.5821536000003107;2446
537;1.5851591000009648;2447
538;1.588154900000518;2448
539;1.5911560000004101;2448
540;1.5941529000010632;2448
541;1.597146400001293;2449
542;1.6001586000002135;2450
543;1.603152300000147;2450
544;1.6061573999995744;2451
545;1.6091551000008621;2451
546;1.6121187000007922;2452
547;1.6147837999997137;2452
548;1.6169941000007384;2453
549;1.6199092000006203;2453
550;1.6230740000009973;2454
551;1.6261006000004272;2454
552;1.6291020999997272;2455
553;1.632105300001058;2455
554;1.635107899999639;2456
555;1.6381259999998292;2456
556;1.6411134999998467;2456
557;1.6442189000008511;2456
558;1.6472485000012966;2457
559;1.6502352000006795;2457
560;1.653239900000699;2457
561;1.6562162000009266;2457
562;1.6592411000001448;2458
563;1.6619150000005902;2458
564;1.6652387000012823;2458
565;1.668246100000033;2459
566;1.6712418000006437;2460
567;1.6742332000012539;2460
568;1.677236499999708;2461
569;1.6802449999995588;2460
570;1.6832446999997046;2461
571;1.6862442000001465;2461
572;1.6892497999997431;2461
573;1.6922389999999723;2462
574;1.6952603000008821;2462
575;1.6982527000000118;2462
576;1.7012383000001137;2463
577;1.7042422000013175;2463
578;1.7069068000000698;2463
579;1.710144599999694;2464
580;1.7132493000008253;2464
581;1.7162437999995745;2465
582;1.719245199999932;2465
583;1.7222523000000365;2465
584;1.724774600001183;2466
585;1.7269773999996687;2466
586;1.7299616000000242;2466
587;1.7332036000007065;2466
588;1.7362417000003916;2466
589;1.7392467000008764;2466
590;1.7422428999998374;2466
591;1.7452515000004496;2466
592;1.748246500001187;2465
593;1.751252600000953;2465
594;1.7542420999998285;2466
595;1.7569096000006539;2466
596;1.7602365000002465;2466
597;1.7632212999997137;2466
598;1.7662539000011748;2466
599;1.7692468000004737;2466
600;1.7720210000006773;2466
601;1.7752476000005117;2466
602;1.7782497000007425;2466
603;1.781245800000761;2466
604;1.7842435000002297;2466
605;1.7873464000003878;2465
606;1.789941799999724;2465
607;1.7932099000008748;2465
608;1.7962458000001789;2465
609;1.7992422999996052;2466
610;1.8022421000005124;2466
611;1.805241500000193;2465
612;1.8082410999995773;2466
613;1.8112453000012465;2466
614;1.8142550000011397;2466
615;1.817236300001241;2466
616;1.8202449000000342;2466
617;1.823034799999732;2467
618;1.8262403000007907;2467
619;1.8292578000000503;2467
620;1.8322473999996873;2466
621;1.8349881000012829;2466
622;1.8379758000010042;2467
623;1.8412098000007973;2467
624;1.8442444000011164;2466
625;1.847251099999994;2466
626;1.850260299999718;2466
627;1.8532470999998623;2466
628;1.8562294000003021;2466
629;1.8592506000004505;2466
630;1.8622609000012744;2466
631;1.8652376999998523;2466
632;1.8682386000000406;2466
633;1.8712191000013263;2465
634;1.8742464999995718;2465
635;1.8772418000007747;2465
636;1.8802501000009215;2465
637;1.8832419000009395;2465
638;1.8862432000005356;2464
639;1.8892587999998796;2464
640;1.8922394000001077;2464
641;1.8952421000012691;2463
642;1.8982422999997652;2463
643;1.9012476000007155;2463
644;1.9042526000012003;2463
645;1.9070501000005606;2463
646;1.9102499000000535;2462
647;1.9132863000013458;2461
648;1.9162456000012753;2461
649;1.9192473000002792;2461
650;1.9222436000000016;2461
651;1.9252519000001485;2462
652;1.9282431999999972;2461
653;1.9312367000002268;2461
654;1.9342544999999518;2461
655;1.9372407000009844;2460
656;1.9399623999997857;2460
657;1.9432491000006848;2460
658;1.9459841000007145;2459
659;1.948046900000918;2458
660;1.9511316000007355;2458
661;1.9541105999996944;2458
662;1.9567977000006067;2458
663;1.9600964000001113;2458
664;1.9631048000010196;2458
665;1.9661360000009154;2457
666;1.9691185000010591;2457
667;1.9721152000001894;2457
668;1.9751243999999133;2456
669;1.9781355000013718;2456
670;1.9816962000004423;2456
671;1.9856462000007014;2457
672;1.9896660000013071;2456
673;1.993571900000461;2455
674;1.9975260999999591;2454
675;2.001536200001283;2454
676;2.0055240000001504;2453
677;2.008496300000843;2453
678;2.0124204000003374;2453
679;2.015433100001246;2452
680;2.0195268999996188;2452
681;2.0232226999996783;2451
682;2.0264667000010377;2450
683;2.0305258999997022;2449
684;2.034527900001194;2448
685;2.0385820000010426;2448
686;2.0409274000012374;2448
687;2.0444876000001386;2447
688;2.048526000000493;2447
689;2.0525362999997014;2446
690;2.056370300000708;2445
691;2.0589677000007214;2444
692;2.0622885000011593;2444
693;2.0652594000002864;2444
694;2.068288100001155;2443
695;2.072284199999558;2443
696;2.075232999999571;2442
697;2.0782397000002675;2442
698;2.081238900000244;2441
699;2.084295000000566;2441
700;2.087259300000369;2441
701;2.0899249000012787;2440
702;2.093260499999815;2440
703;2.096260500000426;2440
704;2.0992595000006986;2440
705;2.102259799999956;2439
706;2.1052608999998483;2439
707;2.1082734999999957;2438
708;2.111234100000729;2438
709;2.1142634000007092;2437
710;2.117183100001057;2436
711;2.1202659999999014;2435
712;2.1230077000000165;2435
713;2.12626740000087;2435
714;2.129270600000382;2434
715;2.1322617000005266;2433
716;2.135257800000545;2433
