;time;amplitude
0;0.005375099999582744;2463
1;0.010024999999586726;2461
2;0.01532269999916025;2461
3;0.02031679999890912;2460
4;0.025363900000229478;2459
5;0.03028210000047693;2458
6;0.03533489999972517;2458
7;0.03965109999990091;2456
8;0.04348009999921487;2455
9;0.04800049999903422;2454
10;0.051754199999777484;2453
11;0.055978599999434664;2453
12;0.059542200000578305;2452
13;0.06403580000005604;2451
14;0.06797410000035597;2450
15;0.07134059999953024;2450
16;0.07438249999904656;2449
17;0.07739889999902516;2448
18;0.08040729999993346;2448
19;0.08334879999893019;2448
20;0.08733799999936309;2447
21;0.09018929999911052;2446
22;0.09330039999986184;2446
23;0.09638239999912912;2444
24;0.09938419999889447;2443
25;0.10237690000030852;2443
26;0.1053816999992705;2442
27;0.108375599998908;2441
28;0.11138749999918218;2441
29;0.11437169999953767;2440
30;0.11738390000027721;2439
31;0.1203745999991952;2438
32;0.1233684999988327;2438
33;0.12606109999978798;2437
34;0.12922549999893818;2436
35;0.13206299999910698;2435
36;0.13522199999897566;2435
37;0.13821090000055847;2434
38;0.14121680000062042;2433
39;0.14423940000051516;2433
40;0.1471638000002713;2432
41;0.15019769999889832;2432
42;0.15322670000023209;2431
43;0.15619949999927485;2430
44;0.15916660000038974;2429
45;0.16219549999914307;2429
46;0.16522319999967294;2428
47;0.1682292999994388;2428
48;0.17120780000004743;2427
49;0.17420279999896593;2427
50;0.17723209999894607;2426
51;0.1800647999989451;2425
52;0.18295609999950102;2425
53;0.18607990000054997;2424
54;0.18910219999997935;2423
55;0.19211019999966084;2423
56;0.19443959999989602;2422
57;0.19852240000000165;2421
58;0.201489600000059;2420
59;0.20430769999984477;2419
60;0.20728789999884611;2419
61;0.21020540000063193;2418
62;0.21306910000021162;2417
63;0.21648439999989932;2416
64;0.2194631999991543;2415
65;0.22244560000035563;2414
66;0.2254345999990619;2413
67;0.22799959999974817;2413
68;0.23130809999929625;2412
69;0.23431150000033085;2411
70;0.23731249999946158;2410
71;0.24033930000041437;2410
72;0.2430036999994627;2409
73;0.2459350999997696;2408
74;0.24896760000046925;2407
75;0.2519711999993888;2407
76;0.25396290000026056;2407
77;0.25596439999935683;2406
78;0.2589501000002201;2405
79;0.2610181999989436;2405
80;0.2640410999993037;2405
81;0.2662894999994023;2404
82;0.26928310000039346;2403
83;0.27231989999927464;2403
84;0.27533459999904153;2402
85;0.27831399999922724;2402
86;0.2813163999999233;2401
87;0.28432839999913995;2400
88;0.28732189999936963;2400
89;0.2901736999992863;2399
90;0.29296810000050755;2399
91;0.2960729000005813;2399
92;0.2990831999995862;2398
93;0.30207729999892763;2398
94;0.30557860000044457;2397
95;0.3094600000003993;2396
96;0.3126587999995536;2395
97;0.31658799999968323;2394
98;0.32024040000032983;2394
99;0.32352410000021337;2393
100;0.3260099999988597;2392
101;0.3292633000000933;2392
102;0.33230059999914374;2391
103;0.33528970000043046;2391
104;0.338317100000495;2390
105;0.3413273999994999;2389
106;0.3443238999989262;2389
107;0.3473206999988179;2388
108;0.35031870000057097;2388
109;0.3533262000000832;2387
110;0.3563219999996363;2387
111;0.35906269999941287;2386
112;0.36232059999929334;2386
113;0.36532179999994696;2385
114;0.36799169999903825;2385
115;0.36987369999951625;2384
116;0.37199039999904926;2384
117;0.3740624000001844;2384
118;0.3759924999994837;2384
119;0.37901769999916723;2383
120;0.3809994999992341;2383
121;0.3829377999991266;2383
122;0.3850392999993346;2383
123;0.38700620000054187;2382
124;0.3889825000005658;2382
125;0.3909583999993629;2382
126;0.39295529999981227;2382
127;0.3949883999994199;2382
128;0.3969875000002503;2382
129;0.39892739999959304;2382
130;0.40194619999965653;2381
131;0.4050250000000233;2381
132;0.4080665000001318;2381
133;0.4117354999998497;2380
134;0.41522660000009637;2380
135;0.41831269999966025;2380
136;0.42131940000035684;2379
137;0.4243120999999519;2379
138;0.42731800000001385;2379
139;0.4299931999994442;2378
140;0.4320274999990943;2378
141;0.4353195000003325;2378
142;0.43832079999992857;2378
143;0.441312699998889;2378
144;0.4443171999992046;2377
145;0.4473214999998163;2377
146;0.45032179999907385;2377
147;0.45331570000053034;2377
148;0.45630329999949026;2377
149;0.45907269999952405;2377
150;0.4622908000001189;2377
151;0.46527729999979783;2377
152;0.46826969999892754;2376
153;0.47127089999958116;2376
154;0.47430220000023837;2376
155;0.4770735000001878;2376
156;0.4802816999999777;2377
157;0.4832762999994884;2376
158;0.48628759999883187;2376
159;0.48927939999884984;2376
160;0.4922688999995444;2376
161;0.49528749999990396;2376
162;0.4982810999990761;2376
163;0.5012237999999343;2376
164;0.5042945999994117;2376
165;0.5072908000001917;2376
166;0.5101025000003574;2376
167;0.5130499000006239;2376
168;0.5162834000002476;2376
169;0.5192821999989974;2376
170;0.522291999999652;2376
171;0.5252674000003026;2376
172;0.5282839999999851;2376
173;0.5312820999988617;2376
174;0.5342901000003621;2376
175;0.5372855999994499;2376
176;0.5400504999997793;2376
177;0.5430555000002641;2376
178;0.5462848999995913;2376
179;0.5492785000005824;2376
180;0.5522856999996293;2376
181;0.5552576999998564;2376
182;0.5582794999991165;2376
183;0.5612865000002785;2377
184;0.5642828999989433;2377
185;0.5672782000001462;2377
186;0.5702810999991925;2377
187;0.5732814000002691;2377
188;0.5759851999991952;2378
189;0.5792803000003914;2378
190;0.582290299998931;2378
191;0.5852828999995836;2378
192;0.5882789999996021;2379
193;0.5912840999990294;2379
194;0.5942792000005284;2378
195;0.5972830999999132;2379
196;0.6002888000002713;2379
197;0.6032823999994434;2380
198;0.6062779000003502;2380
199;0.609048399999665;2380
200;0.6122878000005585;2380
201;0.6152824999990116;2381
202;0.6182888000003004;2381
203;0.6211227000003419;2382
204;0.6242842999999993;2382
205;0.6273108999994292;2382
206;0.630329100000381;2383
207;0.6332827000005636;2383
208;0.6363117999990209;2383
209;0.6393064000003505;2384
210;0.6423549999999523;2384
211;0.6453165000002627;2385
212;0.648305499998969;2384
213;0.6512533999994048;2385
214;0.6543103000003612;2386
215;0.6572828999997;2386
216;0.6603166000004421;2386
217;0.6633056999999098;2387
218;0.6661060999995243;2387
219;0.6693070000001171;2387
220;0.6723081999989517;2388
221;0.6753367000001163;2388
222;0.6783071999998356;2388
223;0.6812255999993795;2389
224;0.6843076999994082;2389
225;0.6873039000001882;2389
226;0.6903045999988535;2389
227;0.6931504999993194;2390
228;0.6963209000005008;2390
229;0.6992974999993748;2390
230;0.7023088000005373;2391
231;0.7053092000005563;2392
232;0.7083277999990969;2393
233;0.7113066000001709;2393
234;0.7143108000000211;2393
235;0.7173074000002089;2394
236;0.7203083999993396;2395
237;0.7233080999994854;2395
238;0.7260246999994706;2395
239;0.728998299999148;2396
240;0.7321049000001949;2396
241;0.7350709000002098;2397
242;0.7380887999988772;2397
243;0.7410916999997426;2398
244;0.7429004999994504;2399
245;0.7458774999995512;2399
246;0.7479459999995015;2399
247;0.751396300000124;2400
248;0.7559805000000779;2401
249;0.7604769999998098;2402
250;0.7650395999989996;2403
251;0.7685081999989052;2403
252;0.7730570000003354;2404
253;0.7774912000004406;2404
254;0.7820431999989523;2404
255;0.7855811999997968;2405
256;0.7898991000001843;2406
257;0.79314340000019;2407
258;0.7967714000005799;2407
259;0.800756900000124;2408
260;0.8047444000003452;2409
261;0.8087658999993437;2410
262;0.8126952999991772;2411
263;0.8166865999992297;2411
264;0.8207445999996708;2412
265;0.824719099999129;2413
266;0.8287894000004599;2414
267;0.8327504999997473;2415
268;0.8367484999998851;2416
269;0.8402881000001798;2417
270;0.8431853000001865;2418
271;0.8461879000005865;2418
272;0.8491828000005626;2419
273;0.8523685999989539;2420
274;0.8553737999991426;2421
275;0.8583703999993304;2422
276;0.8613750999993499;2422
277;0.8643895000004704;2423
278;0.8673784999991767;2423
279;0.8701438999996753;2424
280;0.8733673000006092;2425
281;0.8761572999992495;2425
282;0.8793654999990395;2426
283;0.8822220999991259;2426
284;0.8853522999997949;2427
285;0.8881734999995388;2428
286;0.891260999998849;2428
287;0.8942693999997573;2429
288;0.8972556999997323;2430
289;0.900250299999243;2431
290;0.9032520999990084;2431
291;0.9062749999993684;2432
292;0.9092208000001847;2432
293;0.9122733000003791;2433
294;0.9152623999998468;2434
295;0.9180660000001808;2435
296;0.9212628999994195;2435
297;0.924263200000496;2437
298;0.9272657000001345;2437
299;0.9302267999992182;2438
300;0.9331830999999511;2438
301;0.9362535000000207;2439
302;0.939260799999829;2440
303;0.9422624999988329;2440
304;0.9452555999996548;2441
305;0.9482601999989129;2441
306;0.9510809999992489;2442
307;0.9538763999989897;2443
308;0.956034599999839;2444
309;0.9588062000002537;2444
310;0.9610747000006086;2445
311;0.963066099999196;2445
312;0.9649267000004329;2446
313;0.9670753999998851;2446
314;0.9690286000004562;2446
315;0.9720751999993809;2447
316;0.9740204999998241;2447
317;0.9770783000003576;2448
318;0.9790329999996175;2449
319;0.982076500000403;2449
320;0.9840091000005486;2449
321;0.9870761999991373;2450
322;0.9900754999998753;2451
323;0.992010099998879;2451
324;0.9940838000002259;2452
325;0.9970954000000347;2452
326;1.0000829999989946;2452
327;1.0020220000005793;2453
328;1.003978400000051;2454
329;1.0070785999996588;2454
330;1.0089260999993712;2454
331;1.0110537999989901;2455
332;1.0130348000002414;2456
333;1.0149959999998828;2456
334;1.0180787999997847;2457
335;1.0200382999992144;2458
336;1.0230785999992804;2458
337;1.0250120999990031;2459
338;1.0269855000005919;2459
339;1.0300793999995221;2459
340;1.031982099999368;2460
341;1.035076799998933;2461
342;1.0369713999989472;2461
343;1.040072899999359;2462
344;1.0419798999992054;2463
345;1.0439303999992262;2463
346;1.0460932000005414;2464
347;1.048055100000056;2464
348;1.050015799999528;2465
349;1.053076099999089;2465
350;1.0550122000004194;2466
351;1.0569587999998475;2466
352;1.058944700000211;2467
353;1.060923900000489;2467
354;1.0628993999998784;2467
355;1.0650864999988698;2467
356;1.0680849999989732;2468
357;1.0700586999992083;2469
358;1.0730829000003723;2469
359;1.0759133999999904;2470
360;1.0780780000004597;2470
361;1.0800318000001425;2470
362;1.0830769000003784;2471
363;1.085027799999807;2471
364;1.0880846999989444;2471
365;1.0910672999998496;2472
366;1.094076400000631;2472
367;1.0960950999997294;2473
368;1.0990760999993654;2473
369;1.101034699999218;2474
370;1.1029978999995365;2475
371;1.1059024000005593;2475
372;1.108841699999175;2475
373;1.1110272999994777;2476
374;1.114074699999037;2476
375;1.1160299000002851;2476
376;1.1179823000002216;2476
377;1.1211256999995385;2476
378;1.1240691999992123;2477
379;1.125951800000621;2477
380;1.1280630999990535;2478
381;1.1300274999994144;2478
382;1.1319691999997303;2478
383;1.1350380000003497;2478
384;1.13695270000062;2479
385;1.1400512000000163;2479
386;1.1419308000004094;2479
387;1.1440622999998595;2479
388;1.1459672000000865;2479
389;1.1479595999990124;2479
390;1.1510438000004797;2480
391;1.152888399999938;2480
392;1.1549978000002739;2480
393;1.156968400000551;2480
394;1.160085600000457;2481
395;1.1630483999997523;2481
396;1.1660541999990528;2481
397;1.1689234000004944;2481
398;1.1709386999991693;2481
399;1.1740676999997959;2481
400;1.1770799000005354;2481
401;1.1790294000002177;2481
402;1.1809491999993043;2482
403;1.1830196999999316;2482
404;1.1860543999991933;2482
405;1.1895153000004939;2483
406;1.1936760999997205;2483
407;1.1976197000003594;2483
408;1.2015460999991774;2483
409;1.2059045000005426;2484
410;1.2105919999994512;2484
411;1.2149191999997129;2484
412;1.2201741999997466;2485
413;1.22499869999956;2485
414;1.2284254000005603;2486
415;1.2312559000001784;2486
416;1.2342343000000255;2485
417;1.2376789999998437;2485
418;1.2417289999993955;2486
419;1.2457517999991978;2486
420;1.2497518000000127;2486
421;1.2536318000002211;2485
422;1.2563064000005397;2485
423;1.2592205000000831;2485
424;1.2626084000003175;2485
425;1.2666355999990628;2484
426;1.270613599999706;2484
427;1.2746420000003127;2484
428;1.2773801000003004;2484
429;1.2803255999988323;2483
430;1.2830906999988656;2483
431;1.2865645000001678;2483
432;1.2906729000005726;2483
433;1.2942960999989737;2483
434;1.2975993999989441;2483
435;1.3002448999995977;2483
436;1.3035882999993191;2483
437;1.307708599999387;2483
438;1.3101148000005196;2483
439;1.3136949999989156;2482
440;1.317690899999434;2482
441;1.3216974000006303;2482
442;1.3258389000002353;2482
443;1.3296269000002212;2482
444;1.333642100000361;2482
445;1.337630399999398;2482
446;1.3415850999990653;2481
447;1.345107299999654;2481
448;1.3486494999997376;2481
449;1.3526414999996632;2481
450;1.3566455999989557;2480
451;1.3604269999996177;2480
452;1.3634636999995564;2480
453;1.3676600999988295;2479
454;1.3716344000004028;2478
455;1.3756656999994448;2478
456;1.3796545000004699;2478
457;1.3836295999990398;2477
458;1.3876313000000664;2477
459;1.3901210999993054;2476
460;1.3930832000005466;2476
461;1.3976638000003732;2476
462;1.4015065999992657;2475
463;1.4055246999996598;2474
464;1.4092175000005227;2474
465;1.4125948999990214;2474
466;1.4153294999996433;2474
467;1.4186207000002469;2473
468;1.4216145999998844;2473
469;1.4256342999997287;2473
470;1.4296634000002086;2472
471;1.4336359999997512;2472
472;1.437607300000309;2471
473;1.4416449999989709;2471
474;1.4442942999994557;2470
475;1.447594899998876;2470
476;1.4503308000003017;2469
477;1.45356399999946;2469
478;1.456480200000442;2469
479;1.4590745999994397;2468
480;1.462226699999519;2468
481;1.4652289000005112;2468
482;1.468230799999219;2467
483;1.4712318000001687;2467
484;1.4742366999998922;2466
485;1.4772446000006312;2465
486;1.4802311999992526;2464
487;1.4830385000004753;2464
488;1.4862195999994583;2464
489;1.4892354000003252;2464
490;1.4921833999997034;2463
491;1.4952212999996846;2462
492;1.498210100000506;2462
493;1.5010843999989447;2462
494;1.5040644000000611;2461
495;1.505964199999653;2460
496;1.5089523999995436;2460
497;1.5110655999997107;2460
498;1.5140941999998176;2460
499;1.5160754999997152;2459
500;1.51798719999897;2459
501;1.5210766999989573;2458
502;1.5229970000000321;2458
503;1.5258357999991858;2457
504;1.528082999999242;2456
505;1.5299108999988675;2456
506;1.5330679999988206;2456
507;1.536062299999685;2455
508;1.5390698999999586;2454
509;1.5424829999992653;2453
510;1.5454780000000028;2453
511;1.548454199999469;2452
512;1.5513035999993008;2452
513;1.554288600000291;2451
514;1.557319199999256;2450
515;1.5601951999997254;2449
516;1.563208300000042;2448
517;1.5662069999998494;2448
518;1.5692132999993191;2447
519;1.5722382000003563;2446
520;1.575152600000365;2446
521;1.5772576999988814;2446
522;1.5802462999999989;2445
523;1.5832542999996804;2444
524;1.5862312999997812;2443
525;1.5892351000002236;2443
526;1.5921369999996386;2442
527;1.5953231000003143;2442
528;1.5983075000003737;2441
529;1.6013105000001815;2440
530;1.6042969999998604;2439
531;1.607323099999121;2438
532;1.6100327000003745;2438
533;1.6129005999991932;2438
534;1.6150359000002936;2437
535;1.6180784999996831;2437
536;1.6210740000005899;2436
537;1.6230003999990004;2435
538;1.62499249999928;2435
539;1.6270901999996568;2434
540;1.6289985999992496;2433
541;1.6320252000004984;2433
542;1.635070899999846;2432
543;1.6387393000004522;2431
544;1.6425091000000975;2430
545;1.6456065000002127;2430
546;1.6496459999998478;2429
547;1.6536039999991772;2427
548;1.6571036999994249;2427
549;1.660055000000284;2425
550;1.6620502999994642;2425
551;1.6640478999997868;2424
552;1.6661642999988544;2424
553;1.669309400000202;2423
554;1.6723297999997158;2423
555;1.6753561999994417;2422
556;1.6783569999988686;2422
557;1.6813368999992235;2421
558;1.6842608000006294;2420
559;1.6871881999995821;2419
560;1.690362199999072;2418
561;1.6932101999991573;2418
562;1.6963209999994433;2417
563;1.6993244999994204;2417
564;1.7022735999998986;2416
565;1.7053321000003052;2416
566;1.7082989999998972;2415
567;1.711300900000424;2415
568;1.7143102999998518;2414
569;1.7173094999998284;2414
570;1.7201198999991902;2413
571;1.7219470000000001;2412
572;1.7239649999992253;2412
573;1.7259754999995494;2411
574;1.7280425999997533;2411
575;1.7299573999989661;2410
576;1.7321350000001985;2410
577;1.7349281999995583;2409
578;1.7370345999988785;2409
579;1.7393193999996583;2408
580;1.7433125999996264;2407
581;1.746583099999043;2407
582;1.7506118000001152;2406
583;1.7546280000005936;2405
584;1.7586559999999736;2404
585;1.7616428999990603;2403
586;1.7654555999997683;2402
587;1.768426399999953;2401
588;1.771355599999879;2401
589;1.774383800000578;2401
590;1.777351799999451;2400
591;1.780300200000056;2399
592;1.7832933999998204;2398
593;1.7862893999990774;2398
594;1.7893239000004542;2397
595;1.7921003999999812;2397
596;1.7953242999992653;2396
597;1.7983299999996234;2396
598;1.801321499999176;2395
599;1.804322099998899;2395
600;1.8073258999993413;2394
601;1.8103229999996984;2394
602;1.8130163000005268;2393
603;1.816338700000415;2393
604;1.8193021999995835;2392
605;1.822300499999983;2392
606;1.825291199998901;2391
607;1.8282120000003488;2391
608;1.8309939999999187;2391
609;1.8340205000004062;2390
610;1.837327199998981;2390
611;1.8403034000002663;2389
612;1.8431923999996798;2389
613;1.8462980000003881;2388
614;1.8493072999990545;2387
615;1.8522981999994954;2387
616;1.8553243999995175;2386
617;1.8583082999994076;2386
618;1.8613332999993872;2386
619;1.8642988999999943;2385
620;1.8673058999993373;2385
621;1.8703027999999904;2385
622;1.8732978999996703;2384
623;1.8761849000002258;2384
624;1.879332799999247;2383
625;1.8823351999999431;2383
626;1.8852977999995346;2382
627;1.8883081000003585;2382
628;1.8910837000003085;2382
629;1.8931856999988668;2382
630;1.8962986000005913;2382
631;1.8993126999994274;2381
632;1.9022973999999522;2381
633;1.905300200000056;2380
634;1.9082940999996936;2380
635;1.9113044000005175;2379
636;1.9143215000003693;2379
637;1.917329099998824;2379
638;1.9203211000003648;2379
639;1.923091700000441;2378
640;1.9250255999995716;2378
641;1.9283023999996658;2378
642;1.931260299999849;2378
643;1.9342823999995744;2377
644;1.9373326000004454;2377
645;1.9401875000003201;2377
646;1.943068000000494;2377
647;1.9459298999991006;2377
648;1.94796580000002;2376
649;1.9500222000006033;2376
650;1.952024899999742;2376
651;1.955110999999306;2376
652;1.957066599999962;2376
653;1.958930099999634;2376
654;1.9611086000004434;2376
655;1.9630352000003768;2376
656;1.9649807999994664;2375
657;1.9681099999997969;2375
658;1.97005530000024;2375
659;1.9720287000000098;2375
660;1.9750597000002017;2375
661;1.9770943999992596;2375
662;1.980092899999363;2375
663;1.9820488000004843;2375
664;1.9840822000005573;2375
665;1.987106099999437;2375
666;1.9890854000004765;2375
667;1.9918820999992022;2375
668;1.9940872999995918;2375
669;1.9970933999993576;2376
670;1.9990586999992956;2376
671;2.0009401999996044;2375
672;2.003088299999945;2375
673;2.0061193000001367;2375
674;2.00893619999988;2375
675;2.0110985999999684;2375
676;2.0140976999991835;2375
677;2.0160615000004327;2375
678;2.0191120999988925;2375
679;2.0210411999996722;2375
680;2.0241014000002906;2375
681;2.0259387000005518;2375
682;2.0280693999993673;2375
683;2.0300372000001516;2375
684;2.0329399000002013;2375
685;2.0350557999990997;2376
686;2.0381068999995477;2376
687;2.0400587000003725;2376
688;2.041975000000093;2376
689;2.044107300000178;2376
690;2.046056999999564;2376
691;2.0481994999991002;2376
692;2.0508762999998;2376
693;2.0531047000004037;2376
694;2.0550399999992806;2377
695;2.058113699999012;2377
696;2.060106299999461;2376
697;2.0620552000000316;2376
698;2.064019299999927;2377
699;2.066016099999615;2377
700;2.0691033999992214;2377
701;2.072099299999536;2377
702;2.0740296999993006;2377
703;2.077100000000428;2377
704;2.079041099999813;2377
705;2.0811068000002706;2377
706;2.0840884999997797;2377
707;2.087093599999207;2377
708;2.089034000000538;2378
709;2.091861400000198;2378
710;2.094111000000339;2378
711;2.0970916000005673;2378
712;2.099038099999234;2379
713;2.1021031999989646;2379
714;2.1051050999994914;2379
715;2.108105600000272;2379
716;2.1109452999990026;2380
717;2.1130548000001;2380
