;time;amplitude
0;0.004107899998416542;2451
1;0.008140599999023834;2451
2;0.012253499999133055;2451
3;0.015669899999920744;2450
4;0.01914509999915026;2451
5;0.022942099998545018;2451
6;0.025918699999238015;2451
7;0.02887699999882898;2451
8;0.03175259999989066;2451
9;0.034597799998664414;2451
10;0.03772639999988314;2451
11;0.04076559999884921;2451
12;0.04361779999999271;2451
13;0.046692500000062864;2451
14;0.04950099999950908;2451
15;0.05251429999952961;2451
16;0.055712399998810724;2451
17;0.058714400000098976;2451
18;0.06169479999880423;2450
19;0.06468820000009146;2450
20;0.06760189999840804;2450
21;0.07061489999978221;2450
22;0.07374529999833612;2450
23;0.07671989999835205;2450
24;0.08013129999926605;2450
25;0.08425779999924998;2449
26;0.0882473999990907;2449
27;0.09207539999988512;2448
28;0.09470169999985956;2448
29;0.09812179999971704;2448
30;0.10196889999861014;2448
31;0.10597149999921385;2448
32;0.10994029999892518;2448
33;0.1132445999992342;2448
34;0.11705949999850418;2448
35;0.12117209999996703;2447
36;0.12504669999907492;2447
37;0.12759289999848988;2447
38;0.13121329999921727;2447
39;0.13516639999943436;2447
40;0.1391284999990603;2447
41;0.14312839999911375;2447
42;0.14718919999904756;2446
43;0.15116799999850628;2446
44;0.15515609999965818;2446
45;0.15886829999908514;2446
46;0.1614862999995239;2446
47;0.1648786999994627;2446
48;0.16779899999892223;2445
49;0.1707096999998612;2445
50;0.17369139999937033;2445
51;0.17672619999939343;2445
52;0.18015439999908267;2444
53;0.1841854999984207;2444
54;0.18799119999857794;2443
55;0.19210999999995693;2443
56;0.19517669999913778;2442
57;0.1991651999996975;2442
58;0.20295639999858395;2442
59;0.2071762999985367;2441
60;0.21056379999936325;2440
61;0.2138595999986137;2440
62;0.21689539999897534;2439
63;0.2197560999993584;2439
64;0.22292449999986275;2439
65;0.22560109999903943;2438
66;0.22871929999928398;2438
67;0.23168119999900227;2438
68;0.23473489999923913;2437
69;0.23805019999963406;2437
70;0.24269399999866437;2436
71;0.2476357999985339;2435
72;0.25257439999950293;2434
73;0.257341999998971;2433
74;0.2610873999983596;2433
75;0.26568269999916083;2432
76;0.2701182999990124;2431
77;0.2741625999988173;2431
78;0.27923639999971783;2430
79;0.2841656000000512;2430
80;0.28829119999863906;2429
81;0.2921610999983386;2429
82;0.2963869999985036;2428
83;0.29976109999915934;2428
84;0.3027760999993916;2427
85;0.3061608999996679;2427
86;0.31014890000005835;2426
87;0.313830399998551;2426
88;0.31837669999913487;2426
89;0.32231289999981527;2425
90;0.325997500000085;2425
91;0.3290545999989263;2424
92;0.333311299998968;2424
93;0.33727429999999003;2423
94;0.3413029999992432;2423
95;0.34468310000011115;2422
96;0.3479983999986871;2422
97;0.35237059999963094;2421
98;0.3563219999996363;2421
99;0.36004569999931846;2420
100;0.36323300000003655;2419
101;0.36729099999865866;2419
102;0.37129409999943164;2418
103;0.37530619999961345;2418
104;0.37890109999898414;2417
105;0.3828931999996712;2417
106;0.387316299998929;2417
107;0.3912127999992663;2416
108;0.3950807999990502;2415
109;0.3992804999998043;2415
110;0.40307690000008733;2415
111;0.407296999999744;2414
112;0.4107953999991878;2414
113;0.41536899999846355;2414
114;0.41933829999834416;2413
115;0.4230779999998049;2413
116;0.4262574999993376;2413
117;0.43029699999897275;2412
118;0.43424339999910444;2412
119;0.4383589999997639;2411
120;0.4417314999991504;2411
121;0.44477569999980915;2411
122;0.44768029999977443;2410
123;0.4506699999983539;2410
124;0.45363219999853754;2410
125;0.45712709999861545;2410
126;0.4607636000000639;2410
127;0.46521149999898626;2410
128;0.46918839999852935;2410
129;0.4731876999994711;2410
130;0.47666019999996934;2409
131;0.4801451999992423;2409
132;0.4841110999986995;2408
133;0.4877597999984573;2408
134;0.49052089999895543;2407
135;0.4936115999989852;2407
136;0.4967029999988881;2407
137;0.5001066999993782;2407
138;0.50317559999894;2407
139;0.5071541999986948;2407
140;0.510739299999841;2407
141;0.5139476999993349;2407
142;0.5168837999990501;2407
143;0.5199575999995432;2407
144;0.5229879999988043;2407
145;0.526785000000018;2407
146;0.5299084999987826;2407
147;0.5327726999985316;2406
148;0.5358957999997074;2406
149;0.5389416999987588;2406
150;0.5417229999984556;2406
151;0.5449291999993875;2406
152;0.547929499998645;2406
153;0.5509301999991294;2406
154;0.5539305999991484;2407
155;0.5569301999985328;2407
156;0.5596599999989849;2407
157;0.5629339999995864;2407
158;0.5656316999993578;2407
159;0.5686126000000513;2407
160;0.5721604999998817;2407
161;0.5761701999999786;2406
162;0.5791552999999112;2406
163;0.5831569999991189;2407
164;0.5871681999997236;2407
165;0.5911485999986326;2407
166;0.5952321999993728;2407
167;0.5981830999990052;2407
168;0.6016123999997944;2407
169;0.6049032999999326;2407
170;0.6078968999991048;2407
171;0.6108582999986538;2407
172;0.6138750999998592;2407
173;0.6169919999992999;2407
174;0.6212551999997231;2407
175;0.6252347999998165;2407
176;0.6295749000000797;2407
177;0.6346592999998393;2408
178;0.6396788999991259;2407
179;0.6441375999984302;2408
180;0.6496862999993027;2409
181;0.6547061000001122;2409
182;0.6593711999994412;2409
183;0.6632890000000771;2409
184;0.6671718999987206;2410
185;0.6725266999983432;2410
186;0.6768889999984822;2410
187;0.6798248999984935;2410
188;0.6831087999998999;2411
189;0.6874737999987701;2411
190;0.6908542000001034;2411
191;0.6938713999988977;2412
192;0.6968702999984089;2412
193;0.7013807999992423;2413
194;0.7053280999989511;2413
195;0.7093570999986696;2413
196;0.7132833999985451;2414
197;0.7172634999988077;2414
198;0.7212819999986095;2414
199;0.7253332000000228;2414
200;0.7293044999987615;2415
201;0.7332538999999088;2416
202;0.7373220999998011;2416
203;0.7413111999994726;2417
204;0.7450812999995833;2417
205;0.7493122999985644;2417
206;0.7531754999999976;2418
207;0.7572848999989219;2418
208;0.7607838999992964;2419
209;0.7652942999993684;2419
210;0.76880059999894;2419
211;0.7732940999994753;2419
212;0.7767734999997629;2420
213;0.7802890999992087;2421
214;0.7843143999998574;2421
215;0.7883463999987725;2422
216;0.7923452999984875;2422
217;0.7962883000000147;2423
218;0.8006953999993129;2423
219;0.8037265999992087;2423
220;0.8068518999989465;2424
221;0.8096156999999948;2425
222;0.8128376999993634;2425
223;0.8157426999987365;2425
224;0.8188405000000785;2425
225;0.8218583999987459;2426
226;0.8248576999994839;2426
227;0.8278633999998419;2426
228;0.83086159999948;2427
229;0.8338613999985682;2427
230;0.8368756999989273;2427
231;0.8398632999997062;2428
232;0.8429165999987163;2428
233;0.8458773999991536;2429
234;0.8488629999992554;2430
235;0.8518525999988924;2429
236;0.8548576999983197;2430
237;0.8578569000001153;2430
238;0.8608716999988246;2431
239;0.8637770999994245;2431
240;0.8668590999986918;2432
241;0.8698552999994718;2432
242;0.8728687999991962;2432
243;0.8758347999992111;2433
244;0.8788424999984272;2433
245;0.8816267999991396;2433
246;0.8845008999996935;2434
247;0.8875577999988309;2434
248;0.8895510999991529;2435
249;0.8915358999984164;2435
250;0.8935412999999244;2435
251;0.8966185999997833;2435
252;0.8995631999987381;2436
253;0.9025903999990987;2436
254;0.9058608999985154;2437
255;0.9088599999995495;2437
256;0.9115427999986423;2438
257;0.9136085999998613;2438
258;0.9155262999993283;2439
259;0.9185812999985501;2439
260;0.9216121999997995;2439
261;0.9250025999990612;2439
262;0.9290654999986145;2440
263;0.9330585999996401;2440
264;0.9358923999989202;2440
265;0.9389421999985643;2441
266;0.9417848999983107;2441
267;0.9448940999991464;2442
268;0.9478527999999642;2441
269;0.95093579999957;2442
270;0.9539327999991656;2442
271;0.9569810999983019;2442
272;0.9597221999993053;2443
273;0.9628871999993862;2443
274;0.9658735999983037;2444
275;0.9689722999992227;2444
276;0.9719725999984803;2444
277;0.9749760999984574;2445
278;0.977964299998348;2445
279;0.980931199999759;2446
280;0.9839329999995243;2446
281;0.9869291999984853;2446
282;0.9898816999993869;2446
283;0.9927959999986342;2446
284;0.9958042999987811;2446
285;0.9989037999985158;2447
286;1.0019146999984514;2447
287;1.0044416000000638;2447
288;1.007649399998627;2448
289;1.0109323999986373;2448
290;1.0138462999984768;2448
291;1.0168336999995518;2448
292;1.019849599999361;2449
293;1.0225007999997615;2449
294;1.0245769999983168;2449
295;1.027612500000032;2449
296;1.0306810999991285;2450
297;1.034233200000017;2450
298;1.0382788999995682;2450
299;1.0421639999985928;2450
300;1.045145499998398;2450
301;1.0491036999992502;2450
302;1.0530995999997685;2450
303;1.0569483999988734;2451
304;1.0595602999983385;2451
305;1.0628815999989456;2451
306;1.0658779999994294;2451
307;1.0688774999998714;2452
308;1.0719214999990072;2452
309;1.0749980000000505;2452
310;1.0797243999986676;2451
311;1.0842726999999286;2452
312;1.0884183999987727;2452
313;1.0937306999985594;2452
314;1.0986458999996103;2452
315;1.1036765999997442;2451
316;1.1071351999999024;2451
317;1.1120601999991777;2451
318;1.1159252999987075;2451
319;1.1203831999991962;2451
320;1.1243179999983113;2451
321;1.1276795999983733;2450
322;1.130666699998983;2450
323;1.1336546999991697;2450
324;1.136765999999625;2450
325;1.139504400000078;2450
326;1.1427574999997887;2450
327;1.1463190999984363;2450
328;1.150052399998458;2450
329;1.1541668999998365;2450
330;1.158161099998324;2449
331;1.1619355999991967;2448
332;1.1661905000000843;2448
333;1.1700723999983893;2448
334;1.174178799999936;2448
335;1.177987099999882;2448
336;1.182172899998477;2448
337;1.1860813999992388;2447
338;1.1901694999996835;2447
339;1.193637200000012;2447
340;1.1968648999991274;2447
341;1.1998994999994466;2446
342;1.2028969999992114;2446
343;1.2059268999983033;2446
344;1.2086644999999407;2446
345;1.2118538999984594;2445
346;1.214925399999629;2445
347;1.2179328999991412;2445
348;1.2209459999994579;2444
349;1.2240155999988929;2444
350;1.2265923999984807;2444
351;1.2297222999986843;2444
352;1.232926499998939;2443
353;1.2359210999984498;2443
354;1.2387767000000167;2443
355;1.2416233999992983;2443
356;1.2445201999998972;2443
357;1.2466864999987592;2442
358;1.2496845999994548;2442
359;1.2526894999991782;2441
360;1.255699999999706;2441
361;1.2586916999989626;2441
362;1.2623158999995212;2441
363;1.2662458999984665;2440
364;1.270145299999058;2440
365;1.2741544999989856;2439
366;1.278167200000098;2439
367;1.2821350999984134;2438
368;1.2860625999983313;2438
369;1.2891211999994994;2437
370;1.293085899998914;2437
371;1.296171999998478;2437
372;1.3001311999996688;2437
373;1.303704199999629;2436
374;1.3066195999999763;2436
375;1.3088297999984206;2436
376;1.311875699999291;2435
377;1.3148918999995658;2435
378;1.3178871000000072;2435
379;1.320938999999271;2435
380;1.3239232999985688;2434
381;1.3265848999999434;2434
382;1.3299246999995376;2433
383;1.3329195999995136;2433
384;1.3357844999991357;2433
385;1.338927099999637;2432
386;1.3419223000000784;2432
387;1.344729099999313;2432
388;1.3481492999999318;2431
389;1.3520943999992596;2431
390;1.3561014999995677;2431
391;1.3600780999986455;2430
392;1.3646958999997878;2429
393;1.369760599998699;2429
394;1.374743699998362;2428
395;1.3795023999991827;2428
396;1.3845066999983828;2427
397;1.3882688999983657;2426
398;1.3924720999984856;2426
399;1.3975162999995518;2425
400;1.4013074999984383;2425
401;1.405497199999445;2424
402;1.4092577999999776;2424
403;1.4133714999989024;2423
404;1.4174118999999337;2423
405;1.4214341999995668;2422
406;1.4265743999985716;2422
407;1.429833399999552;2421
408;1.4344767999991745;2421
409;1.438490599999568;2421
410;1.4422779999986233;2420
411;1.4465029999992112;2419
412;1.4515092999990884;2418
413;1.456509499999811;2418
414;1.4608247999985906;2418
415;1.4640013999996881;2417
416;1.4685138999993796;2417
417;1.4733638999987306;2416
418;1.476974399998653;2416
419;1.4815634999995382;2416
420;1.486488599999575;2415
421;1.4905020999995031;2415
422;1.4955023999991681;2414
423;1.5004980999983673;2413
424;1.5042687999994087;2413
425;1.50803839999935;2413
426;1.512515299998995;2413
427;1.5175239000000147;2412
428;1.522520099999383;2411
429;1.5269571999997424;2411
430;1.5315455999989354;2410
431;1.535510699999577;2409
432;1.5399650999988808;2409
433;1.5439779999996972;2409
434;1.5485619999999471;2409
435;1.5535080999998172;2408
436;1.5585653999987699;2408
437;1.5621860999999626;2407
438;1.5665122999998857;2407
439;1.5702608999999939;2407
440;1.573944699999629;2407
441;1.5778897999989567;2407
442;1.580895099999907;2406
443;1.5839218999990408;2406
444;1.5870242000000871;2406
445;1.5910117999992508;2406
446;1.5950431999990542;2406
447;1.5990324999984296;2406
448;1.6028893999991851;2406
449;1.606009899998753;2407
450;1.6097896999999648;2407
451;1.6130070999988675;2407
452;1.6170734999996057;2406
453;1.6198766999987129;2406
454;1.6228793999998743;2406
455;1.6258793999986665;2406
456;1.6290166999988287;2406
457;1.6329344999994646;2406
458;1.6360133999987738;2406
459;1.640015899998616;2406
460;1.643828599999324;2407
461;1.6470243999992817;2407
462;1.6510161999995034;2407
463;1.6550078000000212;2407
464;1.6589813999999024;2407
465;1.662029099999927;2407
466;1.6660190999991755;2407
467;1.6700192999996943;2407
468;1.6740245000000868;2407
469;1.6780327999986184;2407
470;1.6817455000000336;2407
471;1.6846366999998281;2407
472;1.6880155999988347;2407
473;1.6920133999992686;2407
474;1.6948952999991889;2407
475;1.6980101999997714;2408
476;1.7020169999996142;2408
477;1.7060214999983145;2408
478;1.7097809999995661;2408
479;1.712868199998411;2408
480;1.7170161999983975;2408
481;1.7210176999997202;2409
482;1.7250218999997742;2410
483;1.7278016999989632;2410
484;1.7308075000000827;2410
485;1.7338606999983313;2411
486;1.736814999998387;2411
487;1.739750799999456;2411
488;1.742613499998697;2411
489;1.745752699998775;2411
490;1.7487086000001;2412
491;1.7517965999995795;2412
492;1.7545856999986427;2413
493;1.757719299999735;2413
494;1.7609131999997771;2413
495;1.763704199998756;2414
496;1.7667218999995384;2414
497;1.7697527999989688;2414
498;1.7727371999990282;2414
499;1.7760955999983707;2415
500;1.7807278000000224;2415
501;1.7857441999985895;2416
502;1.790501099998437;2416
503;1.795203699999547;2416
504;1.7995093999998062;2416
505;1.8033794999992097;2416
506;1.8073518999990483;2417
507;1.8108985999988363;2417
508;1.8139102999994066;2418
509;1.816918299999088;2418
510;1.8200357999994594;2418
511;1.8230159999984608;2418
512;1.8267688999985694;2419
513;1.830011399999421;2419
514;1.8340212999992218;2419
515;1.83778379999967;2420
516;1.8410191999992094;2420
517;1.8450287999985449;2421
518;1.8490114999985963;2422
519;1.8528850999991846;2422
520;1.8558717999985674;2423
521;1.8588778999983333;2423
522;1.8620155999997223;2423
523;1.866014199998972;2424
524;1.8700323999983084;2424
525;1.8740181999983179;2425
526;1.878023299999768;2426
527;1.8820211999991443;2426
528;1.8858360999984143;2426
529;1.8890266999987944;2426
530;1.892788199998904;2427
531;1.8958924999988085;2427
532;1.8988857999993343;2428
533;1.9019627999987279;2428
534;1.9047240999989299;2429
535;1.9080159999994066;2429
536;1.9108829999986483;2430
537;1.9138683999990462;2430
538;1.9168897999988985;2430
539;1.9200298999985534;2430
540;1.9240159000000858;2430
541;1.9279959999985294;2430
542;1.931715599999734;2431
543;1.935013499998604;2432
544;1.9390113999997993;2432
545;1.9427476999990176;2433
546;1.9458785999995598;2433
547;1.9490076999991288;2434
548;1.9528958999999304;2434
549;1.9560040999986086;2435
550;1.959780299999693;2436
551;1.9630048999988503;2436
552;1.9670146999997087;2436
553;1.9710163999989163;2437
554;1.9750117999992653;2437
555;1.9778711999988445;2438
556;1.980879400000049;2438
557;1.983871200000067;2438
558;1.9868652999994083;2439
559;1.9900254999993194;2440
560;1.9939985000000888;2440
561;1.9980187000001024;2440
562;2.002027699998507;2441
563;2.0060200999996596;2441
564;2.009627699999328;2442
565;2.0127685999996174;2442
566;2.0158331999991788;2443
567;2.0190225999995164;2443
568;2.023035999998683;2443
569;2.0267934999992576;2444
570;2.0300320999995165;2444
571;2.03401059999851;2444
572;2.037931999999273;2445
573;2.040891399999964;2445
574;2.0438669999984995;2445
575;2.047015399999509;2446
576;2.051031499999226;2446
577;2.055021399999532;2446
578;2.0589681999990717;2447
579;2.062021099998674;2447
580;2.066010599999572;2447
581;2.0700112999984412;2448
582;2.0740349999996397;2448
583;2.078018599999268;2449
584;2.0820190999984334;2449
585;2.0860252999991644;2449
586;2.090026099998795;2449
587;2.0940250999992713;2449
588;2.0980123999997886;2450
589;2.10202019999997;2450
590;2.1060205999983737;2450
591;2.1098186999988684;2451
592;2.1130223000000115;2451
593;2.11700589999964;2451
594;2.1207774999984395;2451
595;2.1237815999993472;2451
596;2.1267681999997876;2451
597;2.1297914999995555;2451
598;2.1328004999995755;2452
599;2.1373734999997396;2452
600;2.1414023999986966;2451
601;2.1454045999998925;2452
602;2.1503978000000643;2451
603;2.154370399999607;2452
604;2.1584053999995376;2452
605;2.1623991999986174;2452
606;2.166435299999648;2452
607;2.1702694999985397;2452
608;2.174254199999268;2451
609;2.1781661999993958;2452
610;2.1822218999986944;2452
611;2.1862280999994255;2451
612;2.190184600000066;2451
613;2.1937913999990997;2451
614;2.1971581999987393;2450
615;2.2001445999994758;2450
616;2.2039540999994642;2450
617;2.20692119999876;2450
618;2.2097905999999057;2449
619;2.212902100000065;2449
620;2.2159175999986473;2449
621;2.2188725999985763;2449
622;2.221923799999786;2449
623;2.224902199999633;2449
624;2.2279202999998233;2448
625;2.230803799999194;2448
626;2.2346631000000343;2448
627;2.2375711999993655;2448
628;2.2405006999997568;2448
629;2.2437018000000535;2448
630;2.246706500000073;2447
631;2.2496899999987363;2447
632;2.2527781999997387;2447
633;2.2557659999984025;2447
634;2.258782599999904;2446
635;2.2617059999993216;2446
636;2.2650761999993847;2446
637;2.2688456999985647;2445
638;2.271828499999174;2445
639;2.274874299999283;2445
640;2.27788689999943;2444
641;2.2807705999985046;2444
642;2.283692199998768;2444
643;2.2870362999983627;2444
644;2.2912098999986483;2444
645;2.2950876999984757;2443
646;2.299530099999174;2443
647;2.3044519999984914;2443
648;2.309078499998577;2442
649;2.313339799999085;2442
650;2.3185493999990285;2441
651;2.323504399999365;2441
652;2.3281345999985206;2440
653;2.332394999999451;2440
654;2.3362734999991517;2440
655;2.3399911999986216;2439
656;2.3437998999997944;2439
657;2.3468749999992724;2438
658;2.3500117999992653;2438
659;2.354030299999067;2439
660;2.3580235999997967;2438
661;2.361016599999857;2438
662;2.3650245999997423;2438
663;2.3680066999986593;2437
664;2.3717142999994394;2437
665;2.375014100000044;2437
666;2.3780286999990494;2436
667;2.382018499998594;2436
668;2.3860104999985197;2435
669;2.3900280999987444;2435
670;2.393879499999457;2434
671;2.396879899999476;2434
672;2.4000262999998085;2433
673;2.404015599999184;2433
674;2.4080152999995335;2433
675;2.4110160999989603;2433
676;2.415012299999944;2432
677;2.4190236999984336;2432
678;2.423020899999756;2431
679;2.426767299999483;2430
680;2.4300293999986025;2430
681;2.4341038999991724;2429
682;2.438025800000105;2429
683;2.442026099999566;2428
684;2.446009499999491;2427
685;2.4498324999985925;2427
686;2.4528044999988197;2426
687;2.455795500000022;2426
688;2.459815599999274;2426
689;2.4640157999983785;2425
690;2.468015299999024;2425
691;2.472017699999924;2425
692;2.475962399999844;2423
693;2.4790247999990243;2422
694;2.4829122999999527;2422
695;2.4858843999991223;2421
696;2.488869299999351;2421
697;2.491912699999375;2420
698;2.4949049999995623;2420
699;2.4978503999991517;2420
700;2.500908399999389;2419
701;2.503916299998309;2419
702;2.5069176999986666;2419
703;2.5098336999999447;2418
704;2.5127935000000434;2418
705;2.515822699999262;2417
706;2.518779899999572;2417
707;2.521664099998816;2416
708;2.5245077999989007;2416
709;2.5265999999992346;2416
710;2.528438899998946;2416
711;2.530548099999578;2415
712;2.5334967999988294;2415
713;2.5354551000000356;2415
714;2.537424899999678;2415
715;2.539456299999074;2414
716;2.541449399999692;2414
717;2.5435548999994353;2414
718;2.546546399998988;2414
