;time;amplitude
0;0.00345730000117328;2483
1;0.007895300001109717;2482
2;0.011897000000317348;2482
3;0.01590829999986454;2483
4;0.020494500000495464;2482
5;0.023411600001054467;2482
6;0.027615300001343712;2482
7;0.03163240000139922;2482
8;0.03554470000017318;2483
9;0.03899550000096497;2483
10;0.04397860000062792;2483
11;0.049101800001153606;2483
12;0.05274670000108017;2483
13;0.05696570000145584;2483
14;0.06077320000076725;2483
15;0.06484220000129426;2483
16;0.06946880000032252;2483
17;0.07398570000077598;2483
18;0.07791540000107489;2483
19;0.08190770000146586;2483
20;0.08583460000045307;2483
21;0.08985030000076222;2482
22;0.0937952000003861;2482
23;0.09782110000014654;2482
24;0.10180590000163647;2482
25;0.10584820000076434;2482
26;0.10980480000034731;2482
27;0.11383850000129314;2481
28;0.11779400000159512;2482
29;0.1218272000005527;2482
30;0.12579610000102548;2481
31;0.1294387000016286;2482
32;0.1323511000009603;2482
33;0.13629800000126124;2482
34;0.13951950000046054;2482
35;0.14315610000085144;2482
36;0.14651030000095489;2482
37;0.14950090000093041;2482
38;0.1524399000008998;2483
39;0.1565351000008377;2482
40;0.15931580000142276;2482
41;0.1625528000004124;2483
42;0.1665260000008857;2483
43;0.1693360000008397;2483
44;0.17253710000113642;2483
45;0.17651690000093367;2482
46;0.18053320000035455;2483
47;0.1845303000009153;2483
48;0.18749260000004142;2483
49;0.19015500000023167;2482
50;0.19347750000088126;2482
51;0.19648480000068957;2482
52;0.19949390000147105;2483
53;0.20243370000025607;2482
54;0.2054814000002807;2482
55;0.20850360000076762;2482
56;0.2114532000014151;2482
57;0.21445870000025025;2482
58;0.21851190000052156;2482
59;0.221478900000875;2482
60;0.22547710000071675;2482
61;0.2284778000012011;2482
62;0.23147790000075474;2482
63;0.23448480000115524;2482
64;0.23744510000142327;2481
65;0.2402830000009999;2481
66;0.24348340000142343;2481
67;0.24647990000084974;2481
68;0.24947470000006433;2481
69;0.252377400000114;2481
70;0.2554524000006495;2481
71;0.25844770000003336;2481
72;0.2614420000008977;2481
73;0.2642415999998775;2481
74;0.2672332000001916;2481
75;0.27016680000087945;2481
76;0.2731880999999703;2480
77;0.27618450000045414;2480
78;0.279438300000038;2480
79;0.28244960000120045;2480
80;0.28540390000125626;2480
81;0.2884239000013622;2480
82;0.2914414000006218;2479
83;0.29442720000042755;2479
84;0.2974325000013778;2479
85;0.30020060000060766;2479
86;0.30301220000001194;2479
87;0.30618690000119386;2479
88;0.3098254000015004;2479
89;0.3137663000015891;2479
90;0.3172021999998833;2479
91;0.32011229999989155;2479
92;0.3233815000003233;2478
93;0.32637740000063786;2478
94;0.32923940000000584;2478
95;0.3321289000014076;2478
96;0.3358955000003334;2478
97;0.3397801999999501;2478
98;0.34366310000041267;2477
99;0.3474904000013339;2477
100;0.350087100001474;2477
101;0.3530214000002161;2477
102;0.3561764000005496;2477
103;0.3597685000004276;2476
104;0.36323730000003707;2476
105;0.36660699999993085;2476
106;0.3704618000010669;2476
107;0.3733947000000626;2476
108;0.37639040000067325;2476
109;0.3794277000015427;2476
110;0.3822302000007767;2475
111;0.3852444000003743;2475
112;0.3881719000000885;2475
113;0.39169870000114315;2476
114;0.3960564000008162;2476
115;0.40108990000044287;2475
116;0.4061107000015909;2475
117;0.410708400000658;2474
118;0.4149280000001454;2475
119;0.4190831000014441;2474
120;0.42281739999998535;2474
121;0.4264259999999922;2474
122;0.4311152000009315;2473
123;0.4348715000014636;2473
124;0.4390690000000177;2473
125;0.44408629999998084;2472
126;0.4490525000001071;2472
127;0.4536690000004455;2471
128;0.4576870000000781;2471
129;0.46144620000086434;2471
130;0.46448940000118455;2470
131;0.46829280000019935;2470
132;0.47130230000038864;2470
133;0.474644800000533;2469
134;0.4784452000003512;2469
135;0.48142340000049444;2469
136;0.48447200000009616;2469
137;0.4874766000011732;2468
138;0.4904046000010567;2469
139;0.4933861000008619;2469
140;0.49639660000138974;2468
141;0.49940280000009807;2468
142;0.5023125000006985;2468
143;0.5051314000011189;2467
144;0.5084049000015511;2467
145;0.5113986000014847;2467
146;0.514392000000953;2467
147;0.5174024000007194;2467
148;0.5203083000014885;2466
149;0.5234180000006745;2466
150;0.5264039000012417;2466
151;0.5294135000003735;2465
152;0.5323941000006016;2465
153;0.5354029000009177;2465
154;0.538403800001106;2465
155;0.5414035000012518;2465
156;0.5443994000015664;2464
157;0.5474043000012898;2464
158;0.5504023000012239;2464
159;0.5532878000012715;2464
160;0.5562229000006482;2464
161;0.5592224000010901;2463
162;0.5622347000007721;2463
163;0.5652246000008745;2462
164;0.5679826000014145;2462
165;0.5699433000008867;2462
166;0.5721936999998434;2462
167;0.5752228000001196;2462
168;0.5781884000007267;2462
169;0.5811858000015491;2461
170;0.5841814000013983;2461
171;0.5871550000010757;2461
172;0.5899564000010287;2460
173;0.5919124000010925;2460
174;0.5940066000002844;2460
175;0.5959235000009357;2459
176;0.5980421000003844;2459
177;0.5999602000010782;2459
178;0.6020052000003489;2459
179;0.6040975000014441;2459
180;0.6060805000015534;2458
181;0.608044600001449;2458
182;0.6099962000007508;2458
183;0.6119981000010739;2457
184;0.6140221000005113;2457
185;0.6161006000002089;2457
186;0.6179783000006864;2457
187;0.6199601000007533;2457
188;0.6220200000007026;2457
189;0.624015800000052;2456
190;0.6260200000015175;2456
191;0.6280058000011195;2456
192;0.6300956000013684;2456
193;0.632053100000121;2456
194;0.6340515000010782;2456
195;0.6370640000004641;2456
196;0.6390488000015466;2456
197;0.642057000000932;2455
198;0.644102500000372;2455
199;0.646108800001457;2455
200;0.6481044000011025;2455
201;0.6501038000005792;2455
202;0.6519996000006358;2454
203;0.6541023999998288;2454
204;0.6561080000010406;2454
205;0.658108200001152;2454
206;0.6601078000003326;2454
207;0.6621052999998938;2454
208;0.6640351000005467;2454
209;0.6660601000003226;2454
210;0.6689624999999069;2453
211;0.6709724000011192;2453
212;0.6730392000008578;2452
213;0.6759582000013324;2452
214;0.6779838000002201;2452
215;0.6799457000015536;2452
216;0.6818974000016169;2452
217;0.6838913000010507;2452
218;0.6859721000000718;2452
219;0.6880661000013788;2452
220;0.69016080000074;2451
221;0.6921955000016169;2451
222;0.6951922000007471;2451
223;0.6986475000012433;2450
224;0.7030955999998696;2450
225;0.7081658000006428;2449
226;0.7117018000008102;2448
227;0.7171343999998498;2448
228;0.7217145000013261;2448
229;0.725949200001196;2447
230;0.7308891000011499;2447
231;0.7360284000005777;2447
232;0.7394991000001028;2447
233;0.7437951000010798;2447
234;0.7478787000000011;2446
235;0.7518905000015366;2446
236;0.7556899000010162;2446
237;0.7597862000002351;2445
238;0.7639102000011917;2445
239;0.7678802999998879;2445
240;0.7716133000012633;2444
241;0.7760281000009854;2445
242;0.7797557000012603;2444
243;0.7840126999999484;2444
244;0.7872710000010557;2443
245;0.7905587000004743;2443
246;0.7933061000003363;2442
247;0.7964315000008355;2441
248;0.7994274000011501;2441
249;0.8022701000008965;2441
250;0.8054303000008076;2440
251;0.8084336000010808;2439
252;0.8114263000006758;2439
253;0.8144296999998915;2438
254;0.8174288000009255;2438
255;0.8204350000014529;2438
256;0.8234304000015982;2438
257;0.8264386000009836;2437
258;0.829427200000282;2437
259;0.8322309000013774;2437
260;0.8352048000015202;2437
261;0.8381859000000986;2436
262;0.8417747000003146;2436
263;0.8458065000013448;2435
264;0.8497727000012674;2434
265;0.8534232000001793;2434
266;0.8564521000007517;2434
267;0.8594337000013184;2433
268;0.8624374999999418;2433
269;0.8653786000013497;2433
270;0.8682570000000851;2433
271;0.8714378000004217;2433
272;0.8744260000003123;2432
273;0.8773985000007087;2432
274;0.8802255000009609;2432
275;0.883187800000087;2432
276;0.8862906000013027;2431
277;0.8897070000002714;2431
278;0.892337100000077;2431
279;0.8954725000003236;2431
280;0.8980693000012252;2430
281;0.9001110000008339;2430
282;0.9019660000012664;2429
283;0.9040448000014294;2429
284;0.9060449000007793;2429
285;0.9080356000013126;2429
286;0.9113571000016236;2429
287;0.9143462000010913;2429
288;0.917373400001452;2429
289;0.9203761000007944;2428
290;0.9233884000004764;2428
291;0.9263852000003681;2428
292;0.9294141999998828;2427
293;0.9324110000015935;2427
294;0.935406000000512;2426
295;0.9384089000013773;2426
296;0.9414074000014807;2426
297;0.9441163999999844;2426
298;0.9461674000012863;2425
299;0.9490057000002707;2425
300;0.9511985000008281;2425
301;0.9542056999998749;2424
302;0.9578047000013612;2424
303;0.9611333000011655;2424
304;0.9647310000000289;2424
305;0.9687200000007579;2423
306;0.9716609000006429;2422
307;0.9755604000001767;2422
308;0.9784669000000576;2422
309;0.9814528000006248;2422
310;0.9844443000001775;2421
311;0.9874665000006644;2420
312;0.9903759000007994;2420
313;0.9933920000003127;2420
314;0.9964451000014378;2419
315;0.999436500000229;2419
316;1.0022232000010263;2418
317;1.005424500001027;2418
318;1.0081251000010525;2418
319;1.0109981000005064;2418
320;1.0142333000003418;2418
321;1.0170965000015713;2417
322;1.0202109000001656;2417
323;1.0232728000009956;2417
324;1.02768610000021;2417
325;1.0316756000011083;2416
326;1.0357087000011234;2416
327;1.0384923000001436;2416
328;1.0416282000005594;2415
329;1.0454697000004671;2414
330;1.0484510000005685;2414
331;1.051528200001485;2414
332;1.0542892000012216;2414
333;1.0574246000014682;2414
334;1.0604446000015741;2414
335;1.0632331000015256;2413
336;1.0662363000010373;2413
337;1.0691029000008712;2412
338;1.0727491000016016;2412
339;1.0767585000012332;2412
340;1.0806639000002178;2411
341;1.0846682000010333;2410
342;1.0876521000009234;2410
343;1.0916759000010643;2409
344;1.0956751000012446;2409
345;1.099667700000282;2408
346;1.1019571000015276;2408
347;1.1056583000008686;2408
348;1.1096686000000773;2407
349;1.113678900001105;2407
350;1.1172048000007635;2407
351;1.1205428000012034;2407
352;1.1236434000002191;2406
353;1.1276887000003626;2406
354;1.1316841000007116;2405
355;1.1343981999998505;2405
356;1.1373934000002919;2405
357;1.140407700000651;2405
358;1.1434022000012192;2405
359;1.1464172000014514;2404
360;1.1494307000011759;2404
361;1.1521609999999782;2404
362;1.1543029000004026;2403
363;1.1572334000011324;2403
364;1.160249600001407;2403
365;1.1632439000004524;2403
366;1.166188000001057;2403
367;1.1681850000004488;2402
368;1.170186500001364;2402
369;1.1731850000014674;2402
370;1.1752257000007376;2402
371;1.178712800001449;2401
372;1.1817255000005389;2401
373;1.1859006000013324;2401
374;1.1896813000003021;2401
375;1.193507400001181;2400
376;1.1976895000007062;2400
377;1.2017157999998744;2399
378;1.204652000000351;2399
379;1.2086687000009988;2399
380;1.2126731000007567;2398
381;1.216677600001276;2398
382;1.220671000000948;2397
383;1.2246746000000712;2397
384;1.228123400000186;2397
385;1.230988300001627;2397
386;1.2341589000006934;2396
387;1.2376882000007754;2396
388;1.2416827000015473;2396
389;1.2446460999999545;2396
390;1.2474560999999085;2395
391;1.2504490000010264;2395
392;1.253355000000738;2395
393;1.256406500000594;2394
394;1.2594055000008666;2394
395;1.2623992000008002;2394
396;1.2654424000011204;2394
397;1.2682193000000552;2394
398;1.2712393000001612;2394
399;1.2741030000015598;2393
400;1.2772445999999036;2393
401;1.2802328000016132;2393
402;1.2831072000008135;2393
403;1.2851411999999982;2393
404;1.287195700000666;2393
405;1.2901944000004733;2392
406;1.2921276000015496;2391
407;1.2951937000016187;2391
408;1.2972184000009293;2391
409;1.3007249000002048;2391
410;1.3047894999999698;2391
411;1.3070798000007926;2390
412;1.3102451000013389;2390
413;1.313397600000826;2389
414;1.316451300001063;2389
415;1.3190813000001071;2389
416;1.3224232000011398;2389
417;1.3254105000014533;2389
418;1.3284108000007109;2388
419;1.3314092000000528;2388
420;1.3342202000003454;2388
421;1.3371332000006078;2388
422;1.3390398999999888;2387
423;1.3421874000014213;2387
424;1.345194800000172;2387
425;1.348189000000275;2387
426;1.3519150000010995;2387
427;1.35572780000075;2386
428;1.3596786000016436;2386
429;1.3636755000006815;2386
430;1.3677317000001494;2386
431;1.3704820000002655;2386
432;1.3736368000008952;2385
433;1.3774754000005487;2385
434;1.3804632000010315;2385
435;1.3834060000008321;2385
436;1.386155800000779;2386
437;1.389375700000528;2385
438;1.392380500001309;2385
439;1.395199300000968;2384
440;1.3982327000012447;2384
441;1.4012326000010944;2383
442;1.4042287000011129;2383
443;1.4074256000003516;2383
444;1.410429400000794;2383
445;1.4132274000003235;2383
446;1.4162089000001288;2383
447;1.4192913000006229;2382
448;1.4226294000000053;2382
449;1.4266832000012073;2382
450;1.4306831000012608;2382
451;1.434664200000043;2382
452;1.4376658000001044;2381
453;1.4416734000005818;2381
454;1.4456697000005079;2381
455;1.4480443000011292;2381
456;1.4499403000008897;2380
457;1.4531667000010202;2380
458;1.45512250000138;2380
459;1.4571229000011954;2380
460;1.460167500001262;2380
461;1.4637126000015996;2380
462;1.4664996999999858;2380
463;1.4692361000015808;2380
464;1.4724120999999286;2380
465;1.475387899999987;2380
466;1.4783801000012318;2379
467;1.4814063000012538;2379
468;1.4842409000011685;2380
469;1.4874361000001954;2379
470;1.490426500000467;2379
471;1.493213100000503;2379
472;1.496429500000886;2378
473;1.4992343000012625;2378
474;1.5021873000005144;2378
475;1.5057113000002573;2378
476;1.5084858000009262;2378
477;1.511424199999965;2377
478;1.5144395000006625;2377
479;1.5174242000011873;2377
480;1.5204236000008677;2378
481;1.5234299000003375;2378
482;1.526433500001076;2378
483;1.5294322000008833;2378
484;1.5323956000011094;2378
485;1.535400300001129;2378
486;1.538434000000052;2378
487;1.5414220000002388;2378
488;1.544438100001571;2378
489;1.5474329000007856;2377
490;1.550230400000146;2377
491;1.5534348000001046;2377
492;1.5562132000013662;2377
493;1.5592035000008764;2377
494;1.562088100001347;2377
495;1.5642114000002039;2377
496;1.5660146000009263;2377
497;1.568196700000044;2377
498;1.5701899000014237;2377
499;1.5731998000010208;2377
500;1.576196300000447;2377
501;1.5798161000002438;2377
502;1.5837495000014314;2377
503;1.587623800000074;2376
504;1.5916747999999643;2376
505;1.5956788000003144;2375
506;1.5996681000015087;2375
507;1.6036745000001247;2374
508;1.6076778000006016;2374
509;1.611684299999979;2374
510;1.6156836000009207;2374
511;1.6193320000002132;2374
512;1.6221646000012697;2374
513;1.6255561000016314;2374
514;1.628510800001095;2374
515;1.6314425000000483;2374
516;1.6344839000012144;2374
517;1.6374090000008437;2375
518;1.6404122000003554;2374
519;1.6434103999999934;2374
520;1.6462336000004143;2374
521;1.649578800001109;2374
522;1.653673800001343;2374
523;1.6582386999998562;2374
524;1.661733599999934;2375
525;1.6671007000004465;2375
526;1.671602200000052;2375
527;1.6757313000016438;2375
528;1.6800030000013066;2375
529;1.683849300001384;2375
530;1.6878849000004266;2375
531;1.6917836000011448;2374
532;1.6957613000013225;2374
533;1.6999155000012252;2374
534;1.7032953000016278;2374
535;1.7078872000001866;2373
536;1.7119056999999884;2373
537;1.7159064000006765;2373
538;1.7194567000005918;2373
539;1.7223914000005607;2373
540;1.726895499999955;2373
541;1.7303399000011268;2373
542;1.7335447000004933;2373
543;1.7363365000001068;2373
544;1.739493400000356;2373
545;1.742505500000334;2373
546;1.7452993000006245;2373
547;1.748509600000034;2373
548;1.7515242000008584;2372
549;1.754512600000453;2373
550;1.7575113000002602;2373
551;1.7603721000014048;2373
552;1.76336750000155;2373
553;1.766519700000572;2373
554;1.769272000001365;2373
555;1.772511700000905;2374
556;1.775529300000926;2374
557;1.778369700001349;2374
558;1.7812569000016083;2374
559;1.7845086000015726;2374
560;1.787510400001338;2374
561;1.7905292000014015;2374
562;1.7934234000003926;2374
563;1.7963706999998976;2374
564;1.799346300000252;2374
565;1.8033947000003536;2374
566;1.8064306000014767;2374
567;1.809523400001126;2374
568;1.8125100000015664;2374
569;1.8155138000001898;2374
570;1.818553700000848;2374
571;1.8215163000004395;2374
572;1.8241635000013048;2374
573;1.8284069000001182;2374
574;1.8313311000001704;2374
575;1.8343361000006553;2374
576;1.8377207000012277;2374
577;1.8417279000004783;2374
578;1.8457420000013371;2375
579;1.849736900001517;2374
580;1.8532568000009633;2374
581;1.856431900001553;2374
582;1.859690799999953;2374
583;1.8637249000003067;2374
584;1.8677470000002359;2374
585;1.8713932000009663;2374
586;1.8747086000003037;2374
587;1.878388500001165;2374
588;1.88247820000106;2374
589;1.8853815000002214;2374
590;1.8883676000004925;2374
591;1.8912520000012591;2374
592;1.8944210000008752;2374
593;1.8974056000006385;2374
594;1.900417800001378;2374
595;1.9032525000002352;2373
596;1.906413500000781;2373
597;1.9093676000011328;2373
598;1.9124148000009882;2373
599;1.9154008000004978;2372
600;1.9183885000002192;2372
601;1.921404700000494;2372
602;1.924328200000673;2372
603;1.9274109000016324;2373
604;1.9304164000004675;2373
605;1.9334432000014203;2372
606;1.9362636000005296;2373
607;1.939414600001328;2373
608;1.942407100001219;2373
609;1.9454182000008586;2373
610;1.948339800001122;2372
611;1.951420600000347;2373
612;1.954421000000366;2373
613;1.9574096000014833;2373
614;1.960338500000944;2373
615;1.9634237000009307;2373
616;1.966333600001235;2373
617;1.9692793000012898;2373
618;1.9724187000010716;2374
619;1.9754119000008359;2373
620;1.978407900000093;2373
621;1.9813604000009946;2374
622;1.9843701000008878;2374
623;1.9874146000001929;2374
624;1.9903444000010495;2374
625;1.9934034000016254;2374
626;1.9963271000015084;2374
627;1.999325200000385;2374
628;2.002120000001014;2374
629;2.004078900001332;2374
630;2.006102800000008;2374
631;2.008526999999958;2374
632;2.0122985000016342;2374
633;2.0154799000010826;2374
634;2.018548699999883;2374
635;2.0214633000014146;2374
636;2.0244630000015604;2374
637;2.0274238000001787;2374
638;2.030436800001553;2373
639;2.033458800000517;2374
640;2.0361728000007133;2373
641;2.039413300000888;2374
642;2.0423832000014954;2374
643;2.045231000000058;2374
644;2.048269100001562;2374
645;2.0511786000006396;2374
646;2.054444900000817;2375
647;2.0574374000007083;2374
648;2.0603448000001663;2374
649;2.063448100001551;2375
650;2.066429100001187;2375
651;2.0691014000003634;2375
652;2.072250300001542;2375
653;2.0750308000006044;2375
654;2.0771314000012353;2375
655;2.0802140000014333;2375
656;2.0820478000005096;2375
657;2.0852900999998383;2375
658;2.088733800001137;2376
659;2.092751500000304;2375
660;2.0961623000002874;2375
661;2.099410300001182;2375
662;2.1021257000011246;2376
663;2.105383400001301;2375
664;2.1082307000015135;2375
665;2.11120210000081;2375
666;2.1142558000010467;2375
667;2.1172524000012345;2375
668;2.1208132000010664;2375
669;2.1247863000007783;2374
670;2.1287994000012986;2374
671;2.1326819000005344;2374
672;2.1362785000001168;2374
673;2.13945590000003;2374
674;2.142459800001234;2374
675;2.14544720000049;2374
676;2.1484951000002184;2373
677;2.151469899999938;2374
678;2.154451300000801;2374
679;2.1574243000013666;2374
680;2.1604139000010036;2373
681;2.163493500000186;2374
682;2.1662503000006836;2374
683;2.1690973000004306;2374
684;2.1726636000003055;2374
685;2.1770473000015045;2374
686;2.182264800001576;2374
687;2.186728000000585;2374
688;2.191048000000592;2374
689;2.1962633000002825;2375
690;2.201173100000233;2375
691;2.2055688000000373;2375
692;2.2098022000009223;2374
693;2.2138770000001387;2375
694;2.217061900000772;2374
695;2.220437600000878;2374
696;2.2247192000013456;2374
697;2.228857900001458;2374
698;2.2325897999999142;2374
699;2.2363065000008646;2374
700;2.240778000001228;2374
701;2.2447449999999662;2374
702;2.248289500001192;2374
703;2.251227700000527;2374
704;2.254234500000166;2374
705;2.257258900001034;2374
706;2.260236000000077;2374
707;2.2632598000000144;2374
708;2.266281700000036;2373
709;2.269284300000436;2373
710;2.272221900000659;2373
711;2.275236400000722;2373
712;2.278188100000989;2373
713;2.2801544000012655;2373
714;2.283134400000563;2373
715;2.2849724000006972;2373
716;2.28715160000138;2373
717;2.289153700001407;2373
718;2.291114000001471;2373
719;2.293096000001242;2373
