;time;amplitude
0;0.004353500000433996;2446
1;0.00825760000043374;2445
2;0.011270900000454276;2445
3;0.015260600001056446;2444
4;0.018347300001551048;2443
5;0.0219812000013917;2442
6;0.02477780000117491;2442
7;0.028343100000711274;2441
8;0.03238670000064303;2440
9;0.03634320000128355;2439
10;0.03934810000100697;2438
11;0.04288440000163973;2438
12;0.04738770000039949;2437
13;0.05136270000002696;2436
14;0.05507690000013099;2436
15;0.05783719999999448;2435
16;0.06078700000034587;2434
17;0.06380820000049425;2434
18;0.06677810000110185;2433
19;0.06979620000129216;2432
20;0.072960299999977;2431
21;0.07570130000021891;2431
22;0.07905850000133796;2430
23;0.08203830000093149;2429
24;0.08482390000062878;2429
25;0.08810560000165424;2428
26;0.09110839999993914;2427
27;0.09410700000080396;2427
28;0.09710110000014538;2426
29;0.10007220000079542;2425
30;0.10311929999988934;2425
31;0.10611460000109219;2424
32;0.10881610000069486;2423
33;0.11211090000142576;2422
34;0.11511190000055649;2422
35;0.11781930000142893;2421
36;0.1210800000008021;2421
37;0.12407410000014352;2420
38;0.12743070000033185;2419
39;0.13140019999991637;2418
40;0.13530790000004345;2417
41;0.13931880000018282;2417
42;0.14283630000136327;2416
43;0.14624490000096557;2415
44;0.1486971000013;2415
45;0.15069210000001476;2415
46;0.15369820000159962;2415
47;0.15561490000072808;2414
48;0.1575927000012598;2414
49;0.15963300000112213;2413
50;0.16159930000139866;2413
51;0.1636424000007537;2413
52;0.16660350000165636;2412
53;0.16875900000013644;2411
54;0.17181620000155817;2411
55;0.17551620000085677;2411
56;0.17904260000068462;2410
57;0.18331900000157475;2409
58;0.18731990000014775;2409
59;0.19131470000138506;2407
60;0.19431320000148844;2406
61;0.1983239000001049;2406
62;0.20232250000117347;2405
63;0.20632840000143915;2404
64;0.21026400000118883;2403
65;0.21432110000023386;2402
66;0.2181882000004407;2402
67;0.22233030000097642;2402
68;0.22583100000156264;2400
69;0.2286433000008401;2400
70;0.23061890000099083;2399
71;0.23267690000102448;2398
72;0.2346744000005856;2398
73;0.2366308000000572;2398
74;0.2385870000016439;2397
75;0.24058580000018992;2397
76;0.24257380000017292;2396
77;0.2445413000004919;2396
78;0.24657480000132637;2395
79;0.24855340000067372;2395
80;0.25069900000016787;2394
81;0.25260510000043723;2394
82;0.2546118000009301;2393
83;0.2566485000006651;2393
84;0.25856990000102087;2393
85;0.2606275000016467;2393
86;0.2626452000004065;2392
87;0.26459090000025753;2392
88;0.2666263999999501;2392
89;0.26859760000115784;2391
90;0.27061390000017127;2391
91;0.27264500000092085;2391
92;0.274752700001045;2390
93;0.27655330000015965;2390
94;0.27862370000002556;2390
95;0.2806030000010651;2390
96;0.2825628000009601;2389
97;0.2845704999999725;2389
98;0.2866096000016114;2389
99;0.28865330000007816;2388
100;0.2905925000013667;2387
101;0.2927499000015814;2387
102;0.2957228000013856;2386
103;0.2993932000008499;2386
104;0.3034211000012874;2386
105;0.306286099999852;2385
106;0.31028780000087863;2385
107;0.3143534000009822;2385
108;0.31831960000090476;2384
109;0.3222912000001088;2384
110;0.32585650000146416;2383
111;0.33027380000021367;2383
112;0.33425330000136455;2382
113;0.338305200000832;2382
114;0.3421931000011682;2381
115;0.345208000000639;2381
116;0.3492716000000655;2380
117;0.3527544000007765;2380
118;0.3563449000012042;2379
119;0.3600869000001694;2379
120;0.3642767000001186;2379
121;0.3678840000011405;2379
122;0.3710601000002498;2379
123;0.3740496999998868;2378
124;0.37705340000138676;2378
125;0.37999350000063714;2378
126;0.3831832000014401;2377
127;0.38565680000101565;2377
128;0.3886606000014581;2377
129;0.3919335000009596;2377
130;0.3964227000014944;2377
131;0.39980890000151703;2377
132;0.4033151000003272;2377
133;0.4072550000000774;2377
134;0.4112908000006428;2377
135;0.41484310000123514;2377
136;0.4180467000005592;2377
137;0.421038899999985;2377
138;0.4240752000005159;2378
139;0.4270790999999008;2378
140;0.4299899000016012;2378
141;0.4329968000001827;2378
142;0.43599450000147044;2378
143;0.4390177000004769;2378
144;0.4420045000006212;2378
145;0.44502190000093833;2378
146;0.4480208000004495;2378
147;0.4510500000014872;2379
148;0.45404510000116716;2379
149;0.4570486000011442;2380
150;0.46000630000162346;2380
151;0.462894199999937;2380
152;0.46589290000156325;2380
153;0.46889090000149736;2380
154;0.4719113000010111;2380
155;0.4748706000009406;2380
156;0.47788170000058017;2380
157;0.48085380000156874;2380
158;0.48384380000061356;2381
159;0.4868638000007195;2381
160;0.48890940000092087;2380
161;0.49192070000026433;2380
162;0.4947753000014927;2380
163;0.49763570000141044;2380
164;0.49993970000105037;2380
165;0.5027815000012197;2381
166;0.5058090000002267;2381
167;0.5086938000004011;2381
168;0.5107797000000573;2381
169;0.5142040999999153;2381
170;0.5171507000013662;2382
171;0.5199731000011525;2382
172;0.522964800000409;2382
173;0.5258463999998639;2382
174;0.5289165000012872;2382
175;0.531835100000535;2382
176;0.5348343000005116;2382
177;0.5378670999998576;2382
178;0.5408237000010558;2383
179;0.5442701000010857;2383
180;0.5471881000012218;2384
181;0.5499865000001591;2384
182;0.5529760000008537;2384
183;0.5557305000002088;2384
184;0.5586433000007673;2385
185;0.5619361000008212;2385
186;0.5649389000009251;2386
187;0.5679366000003938;2386
188;0.5709412000014709;2386
189;0.5738359000006312;2386
190;0.5769196000001102;2387
191;0.5799385000009352;2387
192;0.5829253000010794;2387
193;0.585930900000676;2388
194;0.5889173000014125;2388
195;0.5919142000002466;2388
196;0.5949295000009442;2389
197;0.5979199000012159;2389
198;0.6010292999999365;2389
199;0.603628300001219;2390
200;0.6055697000010696;2390
201;0.6078227000016341;2390
202;0.6108008999999583;2390
203;0.6144089000008535;2391
204;0.6182740000003832;2392
205;0.6223021000005247;2392
206;0.6258314000006067;2393
207;0.6292440000015631;2393
208;0.6333113000000594;2394
209;0.6360045000001264;2395
210;0.6388292000010551;2395
211;0.6418780000003608;2396
212;0.6450256000007357;2397
213;0.648042600001645;2397
214;0.6520497000001342;2397
215;0.6550509000007878;2398
216;0.6580420000009326;2398
217;0.6610432000015862;2398
218;0.6639198000011675;2399
219;0.666908200000762;2399
220;0.6698458999999275;2400
221;0.6728564000004553;2401
222;0.6756885000013426;2401
223;0.6788011000007828;2402
224;0.6819838999999774;2402
225;0.6864244000007602;2402
226;0.6904050000011921;2403
227;0.6942647000014404;2404
228;0.6980966000010085;2405
229;0.7023055000008753;2406
230;0.7062874000002921;2406
231;0.7102637000007235;2407
232;0.7137844000008045;2407
233;0.7169909000003827;2408
234;0.7198318999999174;2408
235;0.7228313000014168;2409
236;0.7257360000003246;2409
237;0.7287585000012768;2410
238;0.7318389000010939;2411
239;0.7348282000002655;2412
240;0.7378422000001592;2412
241;0.7408506000010675;2413
242;0.7439762000012706;2413
243;0.7470585000010033;2414
244;0.7500353000014002;2415
245;0.7530288000016299;2417
246;0.7558496000001469;2417
247;0.7587240000011661;2418
248;0.7621386999999231;2418
249;0.7651261999999406;2419
250;0.7680988000010984;2420
251;0.7711039000005258;2420
252;0.7741002000002482;2421
253;0.7771216000001004;2421
254;0.7800640000004933;2422
255;0.7830467000003409;2423
256;0.7860500000006141;2424
257;0.7890357000014774;2424
258;0.791557800001101;2425
259;0.7938162999998895;2425
260;0.7968497000001662;2426
261;0.7998367000000144;2426
262;0.8034045000003971;2427
263;0.8073239000004833;2428
264;0.811314600001424;2429
265;0.8152896999999939;2430
266;0.8193162000006851;2431
267;0.8232078000000911;2431
268;0.8257591000001412;2431
269;0.827697700000499;2432
270;0.8299116000016511;2432
271;0.8328105000000505;2433
272;0.836237200001051;2434
273;0.8402903000005608;2434
274;0.8443134000008286;2435
275;0.8482938000015565;2436
276;0.8522911000000022;2437
277;0.8563447000015003;2438
278;0.8602705000012065;2438
279;0.8642274000012549;2440
280;0.8682942000014009;2441
281;0.87230240000099;2442
282;0.8758191000015358;2443
283;0.8792520000006334;2443
284;0.8832994000003964;2444
285;0.887299100000746;2444
286;0.8913120000015624;2445
287;0.8942803000009008;2446
288;0.8982880000003206;2447
289;0.901783900000737;2448
290;0.9050065999999788;2449
291;0.9080052000008436;2449
292;0.9110258000000613;2450
293;0.9139950000007957;2451
294;0.9166986000000179;2451
295;0.9200290000007953;2452
296;0.923022500001025;2452
297;0.9259204999998474;2452
298;0.9288800000012998;2453
299;0.9318743000003451;2454
300;0.9337075000003097;2454
301;0.9367491000011796;2455
302;0.9401015000003099;2455
303;0.9429639000009047;2456
304;0.9460109000010561;2457
305;0.9489990000001853;2458
306;0.9520265999999538;2458
307;0.9550232000001415;2459
308;0.9580015999999887;2460
309;0.9610823000002711;2460
310;0.9635293000010279;2461
311;0.9656149000002188;2461
312;0.9676030000009632;2462
313;0.969708200000241;2462
314;0.9722700000002078;2462
315;0.9757962000003317;2463
316;0.9792131000012887;2464
317;0.9822124000002077;2464
318;0.9850538000009692;2464
319;0.987930300001608;2465
320;0.9911084000013943;2465
321;0.994029600000431;2466
322;0.9970520000006218;2466
323;1.0000221000009333;2467
324;1.0028504000001703;2467
325;1.0058766000001924;2467
326;1.0087868999999046;2468
327;1.01237250000122;2469
328;1.0164326000012807;2469
329;1.020313900000474;2470
330;1.0243261000014172;2470
331;1.0267593000007764;2471
332;1.0300282000007428;2472
333;1.0330063000001246;2472
334;1.0358656000007613;2473
335;1.0388509000003978;2473
336;1.0418164000002434;2474
337;1.0435426000003645;2474
338;1.045558700001493;2474
339;1.0479016000008414;2474
340;1.0508152000002156;2475
341;1.0538332000014634;2475
342;1.0568233000012697;2476
343;1.0586718000013207;2476
344;1.0618381000003865;2476
345;1.0653553000011016;2477
346;1.0693848000009893;2477
347;1.0732934000006935;2478
348;1.0773236000004545;2478
349;1.0813173000005918;2478
350;1.0853052000002208;2479
351;1.089286100001118;2479
352;1.0932845000006637;2479
353;1.097316299999875;2479
354;1.1013032000009844;2479
355;1.1048938000003545;2479
356;1.1081571000013355;2479
357;1.111045200001172;2479
358;1.1140419000003021;2479
359;1.116859800000384;2479
360;1.1198758999998972;2480
361;1.1230677000003197;2480
362;1.1256769000010536;2480
363;1.1290666000004421;2480
364;1.1320642999999109;2480
365;1.1350661000014952;2480
366;1.1380635000004986;2480
367;1.1410731000014493;2480
368;1.1438746000003448;2480
369;1.1468904000012117;2480
370;1.1498693000012281;2481
371;1.1528934000016307;2481
372;1.1556591000007757;2481
373;1.1579269000012573;2481
374;1.1608538000000408;2481
375;1.163837699999931;2480
376;1.1676040000002104;2480
377;1.1713004000012006;2480
378;1.1753237000011723;2481
379;1.1783094000002166;2481
380;1.1823185000012018;2481
381;1.1863186000009591;2481
382;1.190315499999997;2481
383;1.1943393000001379;2480
384;1.1983211000006122;2480
385;1.200770299999931;2481
386;1.203105600001436;2480
387;1.2062536000012187;2480
388;1.208772100000715;2480
389;1.2120303000010608;2480
390;1.2147135000013805;2480
391;1.217858800000613;2480
392;1.2208864000003814;2480
393;1.2238114000010683;2479
394;1.2257391000002826;2479
395;1.2288419000014983;2479
396;1.2308778000005987;2479
397;1.2338357000007818;2479
398;1.2368372000000818;2478
399;1.240446300000258;2478
400;1.2443262000015238;2478
401;1.2483246000010695;2477
402;1.2523200000014185;2477
403;1.2563267000004998;2476
404;1.2602983000015229;2476
405;1.2628816000014922;2476
406;1.2657626000000164;2475
407;1.268812700000126;2475
408;1.2723897000014404;2475
409;1.2758933000004617;2474
410;1.279117900001438;2474
411;1.2833176000003732;2474
412;1.2873236000014003;2474
413;1.2913614000008238;2473
414;1.295043900001474;2473
415;1.2980303000003914;2473
416;1.3008597000007285;2472
417;1.3038454000015918;2472
418;1.3070729000010033;2472
419;1.3100712000014028;2472
420;1.313069000001633;2471
421;1.3160752000003413;2471
422;1.3190690999999788;2471
423;1.3218683000013698;2471
424;1.3246470000012778;2470
425;1.3268451000003552;2470
426;1.3298377999999502;2469
427;1.3328292000005604;2469
428;1.3358488000012585;2468
429;1.339273300000059;2468
430;1.3432356000012078;2468
431;1.3478824000012537;2467
432;1.3511606000010943;2467
433;1.355910700000095;2466
434;1.3602882000013778;2466
435;1.3649420000001555;2465
436;1.3699160000014672;2464
437;1.3742769000000408;2464
438;1.3783474000010756;2463
439;1.3826712999998563;2462
440;1.3860829000004742;2462
441;1.3894950000012614;2461
442;1.3928848000014113;2461
443;1.3961889000001975;2460
444;1.4001858000010543;2460
445;1.4031341000008979;2459
446;1.4059264000006806;2459
447;1.4089547000003222;2458
448;1.4121566000012535;2457
449;1.415160399999877;2457
450;1.418000600000596;2456
451;1.4221613000008801;2456
452;1.4258824000007735;2455
453;1.42915770000036;2454
454;1.432027200000448;2453
455;1.4361647000005178;2452
456;1.4401598000004014;2451
457;1.4431551000016043;2451
458;1.4461499000008189;2451
459;1.4491569000001618;2450
460;1.453160500001104;2450
461;1.4561561999998958;2449
462;1.4602027000000817;2448
463;1.4631542000006448;2448
464;1.4661607000016375;2447
465;1.4701698000008037;2447
466;1.4741539000006014;2445
467;1.4771589000010863;2445
468;1.4809904000012466;2445
469;1.4839049000001978;2444
470;1.486896300000808;2443
471;1.4901700999998866;2443
472;1.492971600000601;2442
473;1.4961640000001353;2441
474;1.4989839000008942;2441
475;1.5031532000011794;2440
476;1.505982300001051;2439
477;1.5089103000009345;2439
478;1.512153200001194;2438
479;1.5161789000012504;2438
480;1.5191764999999577;2436
481;1.5221815000004426;2435
482;1.5250745000012103;2435
483;1.5291909000006854;2434
484;1.5321563000015885;2433
485;1.5349804000015865;2433
486;1.539179299999887;2432
487;1.5419433000006393;2431
488;1.545159799999965;2431
489;1.5479854000004707;2430
490;1.5521765000012238;2429
491;1.5551537000010285;2428
492;1.5581602000002022;2428
493;1.5611659000005602;2427
494;1.5641652000012982;2426
495;1.5670251000010467;2425
496;1.5711883000003581;2425
497;1.5741654000012204;2423
498;1.577163300000393;2422
499;1.5799860000006447;2422
500;1.5841768000009324;2421
501;1.5871547000006103;2420
502;1.5901596000003337;2419
503;1.592915900000662;2419
504;1.5959393000011914;2418
505;1.5988586000003124;2417
506;1.601873000001433;2417
507;1.6048145000004297;2416
508;1.6077789000009943;2416
509;1.6098371000007319;2415
510;1.612829600000623;2415
511;1.615827800000261;2414
512;1.619497700001375;2414
513;1.6234158000006573;2413
514;1.6273197999998956;2412
515;1.6313120000013441;2411
516;1.6353220000000874;2410
517;1.6393047000001388;2410
518;1.6431093999999575;2409
519;1.6461469000005309;2409
520;1.6491627000013978;2408
521;1.6521225000014965;2408
522;1.6551398000010522;2407
523;1.6582850000013423;2407
524;1.661081500000364;2406
525;1.6640478000008443;2405
526;1.667032700001073;2405
527;1.670071900000039;2404
528;1.6728653000009217;2404
529;1.675651100000323;2403
530;1.6778145000007498;2402
531;1.6808402000006026;2401
532;1.6838523000005807;2401
533;1.6861984000006487;2400
534;1.690431200000603;2400
535;1.6944493999999395;2398
536;1.6983341000013752;2398
537;1.7021927000005235;2396
538;1.705972700001439;2396
539;1.7088381000012305;2395
540;1.7120254000001296;2395
541;1.7150230000006559;2394
542;1.7180342000010569;2394
543;1.7210511000012048;2393
544;1.7240516000001662;2393
545;1.7268566000002465;2393
546;1.7300560000003316;2392
547;1.7330762000001414;2391
548;1.7359016000009433;2390
549;1.738900400001512;2390
550;1.741891300000134;2390
551;1.7453660999999556;2389
552;1.749426600001243;2388
553;1.7533321999999316;2388
554;1.7573062000010395;2388
555;1.7603334000014002;2387
556;1.7643235000014101;2387
557;1.768309400000362;2387
558;1.7723572000013519;2387
559;1.7759183000016492;2386
560;1.7791676000015286;2386
561;1.7820906000015384;2385
562;1.7851043999999092;2385
563;1.7879606000005879;2384
564;1.7908977000006416;2384
565;1.7940934000016568;2383
566;1.797099100000196;2383
567;1.8000697000006767;2383
568;1.8028912000008859;2383
569;1.8058971999998903;2383
570;1.8087650000015856;2382
571;1.8116114000004018;2382
572;1.8146646000004694;2382
573;1.8168024000005971;2382
574;1.8197383000006084;2382
575;1.823141900000337;2382
576;1.8270920000013575;2381
577;1.8298912000009295;2381
578;1.8328818999998475;2380
579;1.8358849000014743;2380
580;1.8388867000012397;2380
581;1.8433334000001196;2380
582;1.8476547000009305;2379
583;1.8527463999998872;2379
584;1.8561478999999963;2379
585;1.8603751000009652;2379
586;1.864691100001437;2379
587;1.8697200000005978;2379
588;1.8744684000012057;2379
589;1.8783686000006128;2379
590;1.8823613000004116;2379
591;1.886368700001185;2379
592;1.8901198000003205;2378
593;1.8930103000002418;2378
594;1.897364500000549;2378
595;1.9013500000000931;2378
596;1.9054730000007112;2378
597;1.908950700000787;2379
598;1.9133754000013141;2378
599;1.9173601000002236;2378
600;1.9212565000016184;2379
601;1.9238173000012466;2379
602;1.9268584000001283;2379
603;1.9300602000002982;2379
604;1.9330534000000625;2379
605;1.9359002000001055;2379
606;1.9377515000014682;2379
607;1.9413609000002907;2379
608;1.9441753999999491;2379
609;1.9471439000008104;2379
610;1.9499973000001773;2379
611;1.953006200001255;2380
612;1.9559767999999167;2380
613;1.958808000001227;2380
614;1.961844800000108;2381
615;1.964861500000552;2381
616;1.9678406000002724;2382
617;1.9710943999998563;2382
618;1.9748672000005172;2382
619;1.97809960000086;2382
620;1.9810953000014706;2382
621;1.9837674000009429;2382
622;1.9869030000008934;2383
623;1.9913769000013417;2383
624;1.9955250000002707;2383
625;1.9994372000001022;2384
626;2.0036921000009897;2384
627;2.0088543000001664;2385
628;2.0139398999999685;2385
629;2.018937200000437;2385
630;2.023949000000357;2386
631;2.0289562000016304;2386
632;2.0333397000013065;2387
633;2.037025100000392;2387
634;2.0400141999998596;2387
635;2.043035200000304;2387
636;2.046281300001283;2388
637;2.050381400000333;2389
638;2.054399300001023;2389
639;2.0584629000004497;2389
640;2.0620741000002454;2390
641;2.065306300000884;2390
642;2.0681412000012642;2390
643;2.0711129999999685;2391
644;2.074139300000752;2391
645;2.0770792000002984;2391
646;2.0800789000004443;2392
647;2.0830800000003364;2392
648;2.086068600001454;2393
649;2.0890797000010934;2393
650;2.0918106000008265;2394
651;2.0950800999999046;2394
652;2.098076800000854;2395
653;2.101083000001381;2395
654;2.104079200000342;2396
655;2.1070729000002757;2396
656;2.110077799999999;2396
657;2.1130723000005673;2397
658;2.1159315000004426;2398
659;2.1190811000014946;2398
660;2.1220762000011746;2398
661;2.1248068000004423;2398
662;2.12807950000024;2399
663;2.131072600001062;2399
664;2.1340749000009964;2400
665;2.1370731000006344;2401
666;2.1401334000001953;2401
667;2.142800100000386;2401
668;2.1457285000014963;2402
669;2.147813600000518;2402
670;2.1496596000015415;2402
671;2.151832800000193;2403
672;2.154852600000595;2403
673;2.156823900000745;2404
674;2.1598720000001776;2404
675;2.1649551000009524;2404
676;2.1699702000005345;2406
677;2.174969300000157;2407
678;2.1799221000001126;2408
679;2.1849526000005426;2408
680;2.1899341000007553;2409
681;2.1943891999999323;2410
682;2.1986628000013297;2411
683;2.202550500000143;2412
684;2.2065927000003285;2413
685;2.2105357000000367;2414
686;2.2145689000008133;2415
687;2.2185958000009123;2416
688;2.2225201000001107;2418
689;2.2260137000012037;2418
690;2.2305390000001353;2419
691;2.234553500000402;2420
692;2.2385927000013908;2420
693;2.2420966000008775;2421
694;2.246520700000474;2422
695;2.250385000001188;2422
696;2.253975999999966;2423
697;2.2569644000013795;2424
698;2.259951699999874;2425
699;2.2629243999999744;2426
700;2.2657542000015383;2427
701;2.268790000000081;2427
702;2.270685500001491;2427
703;2.272621200001595;2428
704;2.274621399999887;2428
705;2.2767164000015327;2429
706;2.2786953000013455;2429
707;2.2805349999998725;2429
708;2.2827105000014853;2430
709;2.284672400001;2430
710;2.2866283000003023;2431
711;2.288605700001426;2431
712;2.2923524000016187;2431
713;2.2962177000008523;2432
714;2.299038900000596;2433
715;2.301828400000886;2433
716;2.304898400001548;2434
717;2.3077786000012566;2435
