;time;amplitude
0;0.004696699999840348;2461
1;0.00934389999929408;2460
2;0.012448999999833177;2460
3;0.01628309999978228;2459
4;0.01911140000083833;2458
5;0.021946599999864702;2457
6;0.02516269999978249;2457
7;0.028584899999259505;2456
8;0.03258110000024317;2455
9;0.03826710000066669;2453
10;0.04322890000003099;2452
11;0.048419599999760976;2451
12;0.05318040000020119;2450
13;0.058061399999132846;2449
14;0.06325079999987793;2448
15;0.06756680000034976;2447
16;0.07175540000025649;2446
17;0.07582449999972596;2445
18;0.07973909999964235;2445
19;0.08475750000070548;2444
20;0.0886121000003186;2443
21;0.09265980000054697;2442
22;0.09653199999956996;2441
23;0.099292200000491;2441
24;0.1035570000003645;2440
25;0.10753789999944274;2439
26;0.11152430000038294;2438
27;0.11499639999965439;2438
28;0.1185139999997773;2438
29;0.12252219999936642;2437
30;0.12655830000039714;2436
31;0.13054120000015246;2435
32;0.13345479999952659;2434
33;0.1375341999992088;2433
34;0.14152690000082657;2433
35;0.1449293999994552;2432
36;0.14816129999962868;2431
37;0.15253859999938868;2430
38;0.15652939999927185;2428
39;0.16043569999965257;2428
40;0.16455710000082036;2428
41;0.16749239999990095;2427
42;0.17153890000008687;2426
43;0.1755219999995461;2425
44;0.1784592000003613;2424
45;0.18187810000017635;2423
46;0.18522350000057486;2422
47;0.18820769999911136;2421
48;0.19119800000044052;2420
49;0.19423509999978705;2420
50;0.19719609999992826;2419
51;0.2002093999999488;2419
52;0.20317830000021786;2418
53;0.20619620000070427;2417
54;0.20918630000051053;2417
55;0.2119987999994919;2416
56;0.21486039999945206;2415
57;0.21819959999993443;2415
58;0.22117400000024645;2414
59;0.2242045999992115;2414
60;0.22720710000066902;2413
61;0.2302070999994612;2413
62;0.2332033999991836;2412
63;0.23620579999987967;2411
64;0.238962100000208;2410
65;0.24204079999981332;2409
66;0.24522350000006554;2409
67;0.247928700000557;2408
68;0.25119509999967704;2407
69;0.25420350000058534;2407
70;0.2572087000007741;2406
71;0.260202899999058;2405
72;0.2632052000008116;2405
73;0.2661637000001065;2404
74;0.2691869999998744;2403
75;0.2722099000002345;2402
76;0.2751852000001236;2402
77;0.2781747000008181;2402
78;0.28096170000026177;2401
79;0.28403330000037386;2400
80;0.2869783999994979;2399
81;0.2898038000002998;2399
82;0.29195550000076764;2398
83;0.29498769999918295;2397
84;0.29797709999911604;2396
85;0.30149229999915406;2396
86;0.3055325000004814;2395
87;0.3094118000008166;2394
88;0.313452899999902;2393
89;0.31638480000037816;2393
90;0.32046249999984866;2392
91;0.3244262999996863;2391
92;0.32844999999906577;2390
93;0.3319494000006671;2390
94;0.3354192000006151;2389
95;0.3392232000005606;2388
96;0.34220359999926586;2388
97;0.3452082999992854;2387
98;0.34805380000034347;2387
99;0.3511760999990656;2386
100;0.3541791999996349;2386
101;0.35718590000033146;2385
102;0.35998189999918395;2384
103;0.3629980000005162;2384
104;0.36602180000045337;2384
105;0.36920180000015534;2383
106;0.37219960000038554;2383
107;0.37520129999938945;2382
108;0.3782052000005933;2382
109;0.3807586999992054;2382
110;0.38295909999942523;2382
111;0.38596030000007886;2381
112;0.3895959000001312;2381
113;0.3935440999994171;2381
114;0.3969498000005842;2380
115;0.40002389999972365;2380
116;0.40294270000049437;2379
117;0.4059338999995816;2379
118;0.4094999999997526;2379
119;0.41302360000008775;2378
120;0.41620289999991655;2378
121;0.41906290000042645;2378
122;0.42219459999978426;2377
123;0.4252051000003121;2377
124;0.4278006999993522;2376
125;0.43121070000051986;2376
126;0.43415099999947415;2376
127;0.4371718000002147;2376
128;0.4400648999999248;2376
129;0.442926499999885;2376
130;0.44619199999942794;2376
131;0.44918329999927664;2376
132;0.45218260000001465;2375
133;0.4552045000000362;2375
134;0.45818490000056045;2375
135;0.46096460000080697;2374
136;0.4638195999996242;2374
137;0.46597269999983837;2374
138;0.46896059999926365;2374
139;0.47195800000008603;2373
140;0.47523290000026464;2373
141;0.47821619999922405;2373
142;0.4812117000001308;2373
143;0.48418320000018866;2373
144;0.4871631999994861;2373
145;0.4901506000005611;2374
146;0.493189099999654;2374
147;0.49617749999924854;2374
148;0.49919600000066566;2374
149;0.5021997000003466;2374
150;0.5051867999991373;2374
151;0.5079972000003181;2375
152;0.5097490000007383;2375
153;0.5117707000008522;2375
154;0.5139433000003919;2375
155;0.5169643999997788;2375
156;0.5206039999993664;2375
157;0.5244894000006752;2375
158;0.5284310999995796;2375
159;0.531956299999365;2375
160;0.5354124000004958;2375
161;0.53945720000047;2375
162;0.5434337999995478;2376
163;0.5474911999990582;2376
164;0.5504233999999997;2376
165;0.5541735000006156;2376
166;0.55722489999971;2376
167;0.5602268999991793;2376
168;0.5632110999995348;2376
169;0.5661488999994617;2376
170;0.5691850999992312;2376
171;0.5722029999997176;2376
172;0.5752021999996941;2376
173;0.5792569000004733;2376
174;0.5819377999996505;2377
175;0.5851115999994363;2377
176;0.5881781999996747;2377
177;0.5912176999991061;2378
178;0.5941777999996702;2378
179;0.5971809000002395;2378
180;0.6001828999997088;2378
181;0.603182700000616;2378
182;0.6061836000008043;2379
183;0.6091849000004004;2379
184;0.6121858999995311;2380
185;0.6149206999998569;2380
186;0.617980400000306;2381
187;0.6207890999994561;2381
188;0.6229733000000124;2382
189;0.6259694000000309;2382
190;0.6296041000005062;2382
191;0.6330811000007088;2383
192;0.6364040999997087;2383
193;0.6402374000008422;2383
194;0.6432256999996753;2384
195;0.6462547999999515;2384
196;0.6499519000008149;2384
197;0.6534695999998803;2384
198;0.6574263999991672;2384
199;0.6614425999996456;2385
200;0.6649390999991738;2385
201;0.6683656000004703;2385
202;0.6722351999997045;2386
203;0.675203099999635;2387
204;0.6782036000004155;2387
205;0.6811624000001757;2388
206;0.6841874000001553;2388
207;0.6871878000001743;2388
208;0.6901178000007349;2388
209;0.6932163999990735;2388
210;0.69617880000078;2389
211;0.6990449999993871;2389
212;0.702173199999379;2390
213;0.7051802000005409;2390
214;0.7082155999996758;2391
215;0.7111865999995644;2391
216;0.7141690999997081;2391
217;0.7171780999997281;2392
218;0.7201943000000028;2393
219;0.7232012999993458;2394
220;0.7260812999993504;2394
221;0.728768000000855;2394
222;0.7307514000003721;2395
223;0.7328078999998979;2395
224;0.7347984000007273;2395
225;0.7368435000007594;2396
226;0.7399760999996943;2396
227;0.7429599999995844;2397
228;0.7459538000002794;2397
229;0.7495543000004545;2397
230;0.7535413999994489;2397
231;0.7573589999992691;2398
232;0.7604434999993828;2399
233;0.764276300000347;2400
234;0.7674611999991612;2401
235;0.7714238999997178;2401
236;0.7754492000003665;2402
237;0.7794575999996596;2403
238;0.7834598000008555;2403
239;0.787458400000105;2404
240;0.7914937000005011;2405
241;0.7954468000007182;2405
242;0.7994053999991593;2406
243;0.8034532999990915;2407
244;0.8074904999994033;2408
245;0.8114306000006763;2409
246;0.8149797000005492;2410
247;0.8184000000001106;2410
248;0.8224664999997913;2412
249;0.826466900000014;2413
250;0.8304637000001094;2414
251;0.8334565000004659;2415
252;0.8368965999998181;2414
253;0.8397365000000718;2415
254;0.8419591000001674;2416
255;0.8449366999993799;2416
256;0.8477932000005239;2417
257;0.8504033000008349;2417
258;0.854568400000062;2418
259;0.8584339000008185;2420
260;0.8624820000004547;2421
261;0.8664373999999953;2422
262;0.8694582999996783;2422
263;0.8734669999994367;2423
264;0.8774505000001227;2424
265;0.8812777000002825;2425
266;0.8844054000001051;2426
267;0.8884503000008408;2427
268;0.8924587000001338;2428
269;0.8964624000000185;2429
270;0.9004174000001512;2430
271;0.9044506999998703;2430
272;0.9084595999993326;2432
273;0.9124654000006558;2433
274;0.9164536999996926;2434
275;0.9204534000000422;2435
276;0.9244514999991225;2436
277;0.9284614999996847;2437
278;0.9319584000004397;2437
279;0.9354201999994984;2438
280;0.9392250000000786;2439
281;0.9422223000001395;2440
282;0.9453090000006341;2441
283;0.9478854999997566;2441
284;0.9497757999997702;2442
285;0.9519674000002851;2442
286;0.9549740999991627;2442
287;0.9585293000000092;2443
288;0.9624638999994204;2443
289;0.9664541999991343;2444
290;0.9704923000008421;2444
291;0.9744169999994483;2446
292;0.9784756999997626;2446
293;0.981979300000603;2447
294;0.9851572000006854;2448
295;0.9881559999994352;2449
296;0.9911737999991601;2450
297;0.9942104000001564;2450
298;0.9970281999994768;2451
299;0.999957699999868;2452
300;1.0036104999999225;2452
301;1.0075596000006044;2453
302;1.011471399999209;2453
303;1.0150157000007312;2454
304;1.0184229999995296;2455
305;1.022437899999204;2456
306;1.0264767999997275;2457
307;1.0304684999991878;2459
308;1.0334053000005952;2460
309;1.0372762000006333;2460
310;1.0398870999997598;2461
311;1.0432025999998586;2462
312;1.0461981000007654;2463
313;1.049205900000743;2464
314;1.0522013999998308;2464
315;1.0550569000006362;2465
316;1.057814600000711;2465
317;1.0597496999998839;2465
318;1.0617731000002095;2466
319;1.063944800000172;2466
320;1.066987700000027;2466
321;1.070606699999189;2467
322;1.0745764999992389;2468
323;1.0784533000005467;2469
324;1.0819795000006707;2470
325;1.0853970999996818;2471
326;1.088948700000401;2471
327;1.0918851000005816;2471
328;1.0941626999992877;2472
329;1.0971869999993942;2472
330;1.1001816999996663;2472
331;1.1031894000007014;2473
332;1.1061807000005501;2474
333;1.1089764000007563;2475
334;1.1120176999993419;2475
335;1.1149468999992678;2475
336;1.1180882000007841;2476
337;1.12118399999963;2476
338;1.1244986000001518;2476
339;1.128313999999591;2477
340;1.1312342999990506;2477
341;1.1339673000002222;2478
342;1.1371837999995478;2478
343;1.1400563000006514;2479
344;1.1430273999994824;2480
345;1.1463621000002604;2480
346;1.1511852000003273;2480
347;1.1558404999996128;2481
348;1.1608288999996148;2481
349;1.1654177000000345;2482
350;1.1694817999996303;2483
351;1.1733798999994178;2483
352;1.1776816999990842;2483
353;1.1814706000004662;2483
354;1.1849664999990637;2483
355;1.187973599999168;2483
356;1.1909269000007043;2483
357;1.1939270999992004;2484
358;1.196896100000231;2484
359;1.1992754000002606;2484
360;1.2022901000000275;2484
361;1.2052925000007235;2485
362;1.2081319999997504;2485
363;1.211151499999687;2485
364;1.2142131000000518;2485
365;1.217091000000437;2485
366;1.2200912999996945;2485
367;1.223075300000346;2485
368;1.226118900000074;2485
369;1.2290028000006714;2485
370;1.2320383000005677;2486
371;1.2352030000001832;2486
372;1.2381891000004543;2486
373;1.2411728000006406;2486
374;1.2439924999998766;2486
375;1.2470190999993065;2486
376;1.250395999999455;2485
377;1.2548399000006611;2486
378;1.2600517999999283;2485
379;1.2647603999994317;2485
380;1.2698717000002944;2484
381;1.273493700000472;2484
382;1.277447000000393;2484
383;1.2813255000000936;2484
384;1.2854944999999134;2484
385;1.2895771999992576;2484
386;1.2935400999995181;2483
387;1.2976022999991983;2483
388;1.301429699999062;2483
389;1.3055504000003566;2482
390;1.3095400000001973;2482
391;1.3135237000005873;2482
392;1.3164909000006446;2482
393;1.3205127000001085;2481
394;1.3244813000001159;2481
395;1.3285357000004296;2482
396;1.3320433999997476;2482
397;1.3354911999995238;2482
398;1.3395070999995369;2482
399;1.3435104000000138;2482
400;1.3476090999993176;2482
401;1.3515468000005058;2481
402;1.3550868999991508;2481
403;1.35852899999918;2481
404;1.3625396999996156;2481
405;1.3664731999997457;2480
406;1.3701418000000558;2480
407;1.3745340999994369;2479
408;1.3785248000003776;2479
409;1.3820175000000745;2479
410;1.3854711999993015;2478
411;1.389253600000302;2478
412;1.3922098999992158;2478
413;1.3952384000003804;2477
414;1.3980197000000771;2477
415;1.4012340000008408;2476
416;1.4042468999996345;2475
417;1.40722359999927;2475
418;1.4102332000002207;2475
419;1.4132344999998168;2474
420;1.4162362999995821;2474
421;1.419260500000746;2473
422;1.4222243999993225;2473
423;1.4252429000007396;2472
424;1.4283665000002657;2472
425;1.4325595999998768;2472
426;1.4365171999997983;2470
427;1.4420972999996593;2470
428;1.4471042999994097;2469
429;1.452030399999785;2468
430;1.4570779999994556;2468
431;1.4621076000003086;2467
432;1.4664854999991803;2466
433;1.4708332999998674;2466
434;1.4746873999993113;2465
435;1.4786973999998736;2464
436;1.4820737999998528;2464
437;1.4856863999993948;2463
438;1.4897388000008505;2463
439;1.493436799999472;2462
440;1.4972075999994559;2461
441;1.5001288000003115;2461
442;1.5043824999993376;2460
443;1.5086589000002277;2460
444;1.512723100000585;2460
445;1.5165708999993512;2458
446;1.5207245999990846;2458
447;1.5244447999994009;2457
448;1.5286992000001192;2456
449;1.5321213000006537;2455
450;1.5367184999995516;2454
451;1.540584200000012;2453
452;1.5447538000007626;2452
453;1.5481658000007883;2451
454;1.5527751999998145;2451
455;1.557790599999862;2450
456;1.5613838999997824;2449
457;1.5651061999997182;2448
458;1.5686507999998867;2447
459;1.5723940999996557;2446
460;1.5761222999990423;2446
461;1.5791205999994418;2445
462;1.5821293000008154;2444
463;1.5850403999993432;2443
464;1.588035700000546;2443
465;1.5910480999991705;2442
466;1.5956511000003957;2441
467;1.599532399999589;2440
468;1.603494299999511;2440
469;1.6070569999992586;2439
470;1.6109297000002698;2438
471;1.61400329999924;2438
472;1.616224699999293;2437
473;1.61920149999969;2436
474;1.6222226999998384;2436
475;1.6250471999992442;2435
476;1.6280514999998559;2434
477;1.630988000000798;2433
478;1.6345662000003358;2433
479;1.6386072000004788;2432
480;1.6424752999992052;2431
481;1.6464952000005724;2430
482;1.6489211000007344;2429
483;1.6523878000007244;2428
484;1.6548884999992879;2427
485;1.6585070000000997;2427
486;1.6624912000006589;2425
487;1.6664705999992293;2425
488;1.6705096000005142;2424
489;1.6744698000002245;2423
490;1.6785180000006221;2422
491;1.682433800000581;2421
492;1.6862815999993472;2420
493;1.690287100000205;2419
494;1.6945075999992696;2418
495;1.6980234999991808;2417
496;1.7014398999999685;2416
497;1.705278299999918;2416
498;1.7095233000000007;2415
499;1.7134965999994165;2414
500;1.7158777000004193;2413
501;1.7187654000008479;2412
502;1.7209889000005205;2412
503;1.7239967999994406;2412
504;1.7270121999990806;2411
505;1.730683499999941;2410
506;1.7346319000007497;2410
507;1.7384853999992629;2409
508;1.7424888000005012;2408
509;1.7464889000002586;2407
510;1.7494487999992998;2406
511;1.7534954000002472;2405
512;1.7574860000004264;2404
513;1.7614967999998044;2404
514;1.7644562000004953;2403
515;1.7685177000003023;2402
516;1.7724744000006467;2401
517;1.7765087999996467;2400
518;1.7804997999992338;2399
519;1.7834791999994195;2399
520;1.78750509999918;2398
521;1.7915119999997842;2398
522;1.7954974999993283;2396
523;1.7994794999995065;2395
524;1.8034977999996045;2395
525;1.8075172999997449;2394
526;1.8114831000002596;2393
527;1.8149833000006765;2392
528;1.8184533000003285;2391
529;1.8222771000000648;2391
530;1.8252257999993162;2390
531;1.8280376000002434;2390
532;1.8309076999994431;2389
533;1.834443600000668;2388
534;1.838087899999664;2387
535;1.84105769999951;2386
536;1.8442770000001474;2386
537;1.8472877000003791;2386
538;1.8501961000001756;2385
539;1.8532157999998162;2385
540;1.8562256999994133;2384
541;1.859303600000203;2383
542;1.862243600000511;2383
543;1.864951800000199;2383
544;1.868231399999786;2383
545;1.8712374000006093;2382
546;1.8742394000000786;2382
547;1.8772539000001416;2382
548;1.880232999999862;2381
549;1.8832313000002614;2381
550;1.8862312999990536;2380
551;1.8889756000007765;2380
552;1.8909777000008035;2380
553;1.894248599999628;2380
554;1.8971829999991314;2380
555;1.900207999999111;2380
556;1.9032126999991306;2379
557;1.9062106000001222;2379
558;1.9092295999998896;2379
559;1.9122305000000779;2379
560;1.9150145999992674;2378
561;1.9180280000000494;2377
562;1.9210273000007874;2377
563;1.9240429000001313;2376
564;1.9270515000007435;2376
565;1.9300191000002087;2376
566;1.9330030000000988;2375
567;1.9363283999991836;2375
568;1.9389281000003393;2375
569;1.9409520999997767;2374
570;1.9428996999995434;2374
571;1.94602759999907;2374
572;1.949450699999943;2374
573;1.953593500000352;2373
574;1.9575609999992594;2374
575;1.9614860999990924;2373
576;1.9650091999992583;2373
577;1.9684278999993694;2372
578;1.9725029000001086;2372
579;1.9765189999998256;2372
580;1.980505199999243;2371
581;1.9829566000007617;2371
582;1.9862109999994573;2371
583;1.9892015999994328;2371
584;1.9922059000000445;2371
585;1.995236599999771;2372
586;1.9978974999994534;2372
587;2.0;2372
588;2.0029240999992908;2372
589;2.0060106000000815;2372
590;2.0096489999996265;2372
591;2.01358590000018;2372
592;2.016484199999468;2372
593;2.020253099999536;2372
594;2.023115800000596;2372
595;2.0262645999991946;2372
596;2.0292719999997644;2372
597;2.032008500000302;2372
598;2.0350350000007893;2372
599;2.0384458000007726;2372
600;2.0424960000000283;2372
601;2.0461937000000034;2372
602;2.0490757999996276;2373
603;2.0522270999990724;2373
604;2.0552138999992167;2373
605;2.058280699999159;2374
606;2.061000600000625;2374
607;2.0640958999993018;2374
608;2.0673420000002807;2374
609;2.0713118000003305;2374
610;2.074300000000221;2374
611;2.077267700000448;2374
612;2.08030940000026;2374
613;2.083246700000018;2374
614;2.086248699999487;2375
615;2.0892191999992065;2375
616;2.092225000000326;2376
617;2.0952503999997134;2376
618;2.0979652000005444;2376
619;2.1010554999993474;2376
620;2.104249699999855;2376
621;2.1072696999999607;2376
622;2.1102542000007816;2377
623;2.113255399999616;2377
624;2.116054100000838;2377
625;2.1190540000006877;2378
626;2.1220107000008284;2378
627;2.125105099999928;2378
628;2.128481499999907;2378
629;2.132463899999493;2378
630;2.1365134000006947;2379
631;2.1401948999991873;2380
632;2.143438700000843;2380
633;2.1462558999992325;2381
634;2.1493047999992996;2382
635;2.1522439000000304;2382
636;2.155285200000435;2382
637;2.1582054999998945;2382
638;2.1610364000007394;2383
639;2.1641020999995817;2383
640;2.1672106999994867;2383
641;2.170442099999491;2384
642;2.1742942000000767;2385
643;2.177280300000348;2386
644;2.1802537999992637;2386
645;2.183225599999787;2386
646;2.1862302999998064;2387
647;2.1892213999999512;2387
648;2.192300599999726;2387
649;2.195055099999081;2388
650;2.1979449999998906;2388
651;2.201042700000471;2389
652;2.204248899999584;2389
653;2.2072470000002795;2390
654;2.2102685999998357;2390
655;2.2132378999995126;2390
656;2.216251399999237;2391
657;2.218905600000653;2391
658;2.2208155000007537;2391
659;2.222890799999732;2392
660;2.2248436999998376;2392
661;2.2268251000004966;2392
662;2.2288520999991306;2392
663;2.230859600000258;2393
664;2.232887000000119;2393
665;2.235086599999704;2393
666;2.2378898999995727;2394
667;2.2399043000004895;2394
668;2.242071399999986;2395
669;2.245074799999202;2395
670;2.247873599999366;2395
671;2.2511207000006834;2396
672;2.2541075000008277;2396
673;2.2571112000005087;2396
674;2.2599814999994123;2397
675;2.2619766000007075;2398
676;2.2641380999994;2398
677;2.2669960000002902;2398
678;2.2689394999997603;2399
679;2.2709618999997474;2399
680;2.2729400000007445;2400
681;2.276014600000053;2400
682;2.279506200000469;2401
683;2.283405300000595;2402
684;2.286339300000691;2402
685;2.2891753999992943;2403
686;2.2921683999993547;2404
687;2.2951873000001797;2404
688;2.2979771999998775;2405
689;2.301124300000083;2405
690;2.3041434999995545;2406
691;2.307123700000375;2407
692;2.310116900000139;2407
693;2.312926399999924;2408
694;2.31614350000018;2408
695;2.3191174999992654;2409
696;2.322124899999835;2409
697;2.3249801999991178;2411
698;2.3279903999991802;2411
699;2.3301279000006616;2412
700;2.3331121999999596;2412
701;2.33610039999985;2413
702;2.3391190999991522;2414
703;2.342024699999456;2415
704;2.3450050999999803;2415
705;2.3480803000002197;2416
706;2.3513292000006913;2417
707;2.35432050000054;2417
708;2.3571475999997347;2418
709;2.3599985000000743;2419
710;2.363152199999604;2419
711;2.3662048999995022;2420
712;2.3690029999997932;2421
713;2.370990499999607;2421
714;2.3740035999999236;2422
715;2.37681320000047;2423
716;2.3787816999993083;2423
717;2.3809710000004998;2424
718;2.3829759000000195;2424
719;2.385988500000167;2425
