;time;amplitude
0;0.004112200000236044;2415
1;0.007745400000203517;2415
2;0.011931999999433174;2416
3;0.015800699999090284;2416
4;0.018778300000121817;2417
5;0.021735299998908886;2418
6;0.025847799999610288;2418
7;0.03015609999965818;2419
8;0.03377139999975043;2420
9;0.037132800000108546;2420
10;0.04112349999923026;2420
11;0.044790500000090105;2421
12;0.0491332000001421;2422
13;0.053050699998493656;2422
14;0.057016400000065914;2422
15;0.06077039999945555;2423
16;0.06491300000016054;2423
17;0.06880329999876267;2425
18;0.07307209999999031;2425
19;0.0770048999984283;2426
20;0.08100099999865051;2426
21;0.08495059999950172;2427
22;0.08872599999995145;2427
23;0.09274989999903482;2427
24;0.09708069999942381;2427
25;0.10068150000006426;2428
26;0.10499769999842101;2428
27;0.10891189999892958;2429
28;0.11292979999961972;2429
29;0.11653149999983725;2430
30;0.11956349999854865;2430
31;0.12248019999969983;2431
32;0.12567609999859997;2431
33;0.1286869999985356;2432
34;0.1316324999988865;2432
35;0.1345685999986017;2433
36;0.13770079999994778;2433
37;0.14069779999954335;2434
38;0.14370029999918188;2434
39;0.14669729999877745;2435
40;0.1496711999989202;2435
41;0.15270679999957792;2435
42;0.15570049999951152;2436
43;0.15870349999931932;2436
44;0.16169339999942167;2437
45;0.16459260000010545;2437
46;0.1675612999988516;2438
47;0.17069619999892893;2438
48;0.17370560000017576;2438
49;0.17670259999977134;2439
50;0.17969619999894348;2440
51;0.1827311999986705;2440
52;0.18569569999999658;2441
53;0.18869399999857706;2441
54;0.1917094000000361;2442
55;0.1944690999989689;2442
56;0.19769929999893066;2442
57;0.20047879999947327;2443
58;0.20369839999875694;2443
59;0.2067042999988189;2443
60;0.2096360999985336;2444
61;0.21264770000016142;2444
62;0.21566009999878588;2445
63;0.2185161999987031;2445
64;0.2216517999986536;2446
65;0.22465049999846087;2446
66;0.2274658999995154;2446
67;0.23040539999965404;2447
68;0.2332429999987653;2447
69;0.23564859999896726;2448
70;0.2386663999986922;2448
71;0.2416425999999774;2449
72;0.24465109999982815;2450
73;0.2476740999991307;2450
74;0.25033389999953215;2450
75;0.2536516999989544;2451
76;0.25667780000003404;2451
77;0.25958360000004177;2451
78;0.26232290000007197;2452
79;0.2653171999991173;2453
80;0.2683517999994365;2453
81;0.2702878000000055;2453
82;0.2722835999993549;2453
83;0.2741959999984829;2453
84;0.27620759999990696;2453
85;0.2783871999999974;2454
86;0.28033119999963674;2454
87;0.282299200000125;2455
88;0.2852750999991258;2455
89;0.2872459999998682;2455
90;0.289259299999685;2455
91;0.2912360999998782;2455
92;0.293260200000077;2455
93;0.29528839999875345;2455
94;0.297343299998829;2456
95;0.29932189999999537;2456
96;0.30116999999881955;2456
97;0.30322789999991073;2456
98;0.3052711999989697;2457
99;0.30724539999937406;2457
100;0.30914059999849997;2457
101;0.31122709999908693;2458
102;0.3131690999998682;2458
103;0.3153259999999136;2458
104;0.31737149999935355;2458
105;0.31919339999876684;2458
106;0.32117959999959567;2459
107;0.3231729999988602;2459
108;0.32517599999846425;2459
109;0.32720679999874847;2459
110;0.3291804999989836;2460
111;0.33116359999985434;2460
112;0.33322429999861924;2460
113;0.33525249999911466;2460
114;0.33724209999854793;2461
115;0.33916729999873496;2461
116;0.34116609999909997;2461
117;0.3431982000001881;2461
118;0.3451956999997492;2462
119;0.34715919999871403;2462
120;0.34917889999996987;2463
121;0.3513311999995494;2463
122;0.35324539999965054;2463
123;0.3551103999998304;2463
124;0.35717119999935676;2463
125;0.35917220000010275;2464
126;0.3612255999996705;2464
127;0.36326199999894015;2465
128;0.3652712999992218;2465
129;0.36723069999970903;2466
130;0.3691362999998091;2466
131;0.37123389999942447;2466
132;0.3731446000001597;2466
133;0.3752404999995633;2467
134;0.377234599998701;2467
135;0.37923849999970116;2467
136;0.3812142999995558;2467
137;0.3831529999988561;2467
138;0.3852974000001268;2467
139;0.3872761000002356;2467
140;0.39028569999936735;2467
141;0.3922371999997267;2467
142;0.3943805999988399;2468
143;0.396270999999615;2468
144;0.39845640000021376;2468
145;0.4012891000002128;2469
146;0.4033095999984653;2469
147;0.40529719999904046;2470
148;0.4072459999988496;2470
149;0.40917780000017956;2470
150;0.41226779999851715;2470
151;0.41414219999933266;2471
152;0.41647219999867957;2472
153;0.418190999998842;2472
154;0.42022869999891554;2472
155;0.4222331999990274;2473
156;0.4242502999986755;2473
157;0.4262447000000975;2473
158;0.4282445999997435;2473
159;0.43023170000014943;2473
160;0.43222229999992123;2474
161;0.4342730999997002;2474
162;0.43727749999925436;2474
163;0.43921229999978095;2474
164;0.44126109999888286;2474
165;0.4432237000000896;2474
166;0.44524939999973867;2475
167;0.4472444999992149;2475
168;0.4491999999991094;2475
169;0.4512330999987171;2475
170;0.4531957999988663;2476
171;0.4551992999986396;2476
172;0.45719839999947;2477
173;0.4592240000001766;2477
174;0.461210099998425;2478
175;0.46332559999973455;2478
176;0.4662814999992406;2478
177;0.4683231999988493;2479
178;0.47131399999852874;2479
179;0.47434769999927084;2479
180;0.47632079999857524;2480
181;0.47928649999994377;2480
182;0.48128989999895566;2480
183;0.483244699998977;2481
184;0.48523690000001807;2480
185;0.48723079999945185;2480
186;0.4892634999996517;2480
187;0.4912542999991274;2480
188;0.49430219999885594;2481
189;0.49629019999883894;2481
190;0.49829979999958596;2481
191;0.5002103999995597;2482
192;0.5023060999992595;2482
193;0.5053597999994963;2482
194;0.508269999998447;2483
195;0.5113381999999547;2484
196;0.5143534999988333;2484
197;0.5161659999994299;2484
198;0.5183352999993076;2484
199;0.521349900000132;2484
200;0.5233219999990979;2485
201;0.5253558999993402;2485
202;0.5273285999992368;2485
203;0.529346399998758;2485
204;0.5313451000001805;2485
205;0.5343631999985519;2485
206;0.5373022999992827;2485
207;0.5392707999999402;2485
208;0.5422795999984373;2485
209;0.5443620999994891;2486
210;0.5473019999990356;2486
211;0.5491779999993014;2486
212;0.5511549999991985;2486
213;0.553152599999521;2486
214;0.5551739999991696;2487
215;0.5571787999997468;2486
216;0.5592006999995647;2487
217;0.5611081999995804;2487
218;0.5632033000001684;2487
219;0.5652414999985922;2487
220;0.5671812999989925;2487
221;0.5691507999999885;2488
222;0.5711952000001475;2488
223;0.5732521999998426;2488
224;0.5752978000000439;2488
225;0.5772648000001936;2489
226;0.580276299999241;2489
227;0.5832344999998895;2489
228;0.5852717999987362;2489
229;0.5872795999985101;2489
230;0.5892526999996335;2490
231;0.5912730999989435;2490
232;0.5933072999996511;2491
233;0.5952870000000985;2491
234;0.5973002999999153;2492
235;0.5992593999999372;2492
236;0.6013014999989537;2492
237;0.6033436999987316;2492
238;0.6053245999992214;2492
239;0.6073406999985309;2493
240;0.6093213999993168;2493
241;0.6113464999998541;2493
242;0.6133324999991601;2493
243;0.6153030999994371;2493
244;0.6173325999989174;2493
245;0.6192857999994885;2493
246;0.6212790999998106;2494
247;0.6233501999995497;2494
248;0.6253255999999965;2494
249;0.6273129000001063;2494
250;0.6293315999992046;2494
251;0.6313147000000754;2494
252;0.633207400000174;2495
253;0.6363320000000385;2495
254;0.638335300000108;2495
255;0.6403218999985256;2495
256;0.642326499999399;2495
257;0.6443506999985402;2495
258;0.6463008999999147;2496
259;0.6483158999999432;2496
260;0.6502755999990768;2496
261;0.6523066999998264;2496
262;0.6543263999992632;2496
263;0.6563154999985272;2497
264;0.6583343999991484;2496
265;0.6603230000000622;2496
266;0.6623350999998365;2496
267;0.6643146999995224;2496
268;0.6663074999996752;2496
269;0.6682375999989745;2496
270;0.6712905999993382;2496
271;0.6733051999999589;2496
272;0.6753055999997741;2497
273;0.6773157999996329;2497
274;0.6793065000001661;2496
275;0.6813333999998576;2497
276;0.6832295999993221;2497
277;0.6863223000000289;2497
278;0.6883191999986593;2497
279;0.6903216999999131;2497
280;0.6923118999984581;2497
281;0.6943213999984437;2497
282;0.6963106999992306;2498
283;0.6983270999990054;2498
284;0.7003460999985691;2498
285;0.7023226000001159;2498
286;0.7053300999996281;2498
287;0.7073574999994889;2498
288;0.7093458999988798;2498
289;0.711310599999706;2498
290;0.7133606999996118;2498
291;0.7153240999996342;2498
292;0.7183262999988074;2498
293;0.7203365999994276;2499
294;0.7223218999988603;2499
295;0.724319299999479;2499
296;0.7263354999995499;2499
297;0.7285672999987582;2499
298;0.7313446999996813;2499
299;0.7333638999989489;2500
300;0.7353191999991395;2500
301;0.7373251999997592;2500
302;0.739334299998518;2500
303;0.7413317999998981;2500
304;0.7433347999995021;2500
305;0.7453066999987641;2500
306;0.747307899999214;2501
307;0.7491624999984197;2501
308;0.7513496999999916;2501
309;0.7533311999995931;2501
310;0.7553384999991977;2501
311;0.7573317999995197;2501
312;0.7593173999994178;2501
313;0.7613994999992428;2501
314;0.7633273999999801;2501
315;0.7653396999994584;2501
316;0.7673445000000356;2501
317;0.7693333999995957;2501
318;0.771314199999324;2501
319;0.7732911999992211;2501
320;0.7752812999988237;2502
321;0.7773249999991094;2502
322;0.7802977999999712;2502
323;0.7823016000002099;2502
324;0.7842835999999807;2502
325;0.7862887999999657;2502
326;0.7882691999984672;2502
327;0.7902914999995119;2502
328;0.7922761999998329;2502
329;0.7943070000001171;2502
330;0.7962836999995488;2502
331;0.7981590999988839;2502
332;0.8002793999985442;2502
333;0.8023061999992933;2502
334;0.8042932999996992;2503
335;0.8063027999996848;2502
336;0.8083099999985279;2502
337;0.8103012999999919;2502
338;0.8123729999988427;2502
339;0.8143482999985281;2502
340;0.816254299999855;2502
341;0.818295199998829;2503
342;0.8202784999994037;2502
343;0.822224699999424;2502
344;0.8243355999984487;2503
345;0.8262926999996125;2503
346;0.828287199999977;2503
347;0.8303398999996716;2503
348;0.8323392000002059;2503
349;0.8342973999988317;2503
350;0.8363547999997536;2503
351;0.8382947999998578;2503
352;0.8403534999997646;2503
353;0.8423315000000002;2503
354;0.8443575000001147;2503
355;0.8463364999988698;2503
356;0.848325199998726;2503
357;0.8503485999990517;2503
358;0.8523396999989927;2503
359;0.8553527999993094;2503
360;0.8583361000000878;2503
361;0.8603168999998161;2503
362;0.8623368999997183;2503
363;0.8643480999999156;2503
364;0.8663442999986728;2503
365;0.8683268999993743;2504
366;0.8703311999997823;2503
367;0.8723362000000634;2503
368;0.8743340000000899;2503
369;0.8763500999993994;2503
370;0.8783129999992525;2503
371;0.8803350999987742;2504
372;0.882335599999351;2504
373;0.8843409000000975;2504
374;0.886302799999612;2504
375;0.8893425999995088;2504
376;0.89130859999932;2504
377;0.8933238999998139;2504
378;0.8953184000001784;2504
379;0.897309399999358;2504
380;0.8992005999989487;2504
381;0.9013175000000047;2504
382;0.9033396999984689;2504
383;0.9053337999994255;2505
384;0.9073405999988609;2504
385;0.9093192000000272;2504
386;0.9113480999985768;2505
387;0.9133361999993213;2505
388;0.9153506999991805;2505
389;0.9173016999993706;2505
390;0.9196069999998144;2505
391;0.9223203999990801;2504
392;0.9242991999999504;2505
393;0.9263002999996388;2505
394;0.928251100000125;2505
395;0.9302511999994749;2505
396;0.9322092000002158;2505
397;0.9341948999990564;2505
398;0.9361503000000084;2505
399;0.9381876999996166;2505
400;0.940200699998968;2505
401;0.9421884999992471;2505
402;0.94428599999992;2505
403;0.9472642999990057;2505
404;0.9492011999991519;2505
405;0.9513375999995333;2505
406;0.9533511999998154;2505
407;0.9553145999998378;2505
408;0.9573094999996101;2504
409;0.9593205000001035;2504
410;0.9613325999998779;2504
411;0.964354399999138;2504
412;0.9663360999984434;2505
413;0.9683413999991899;2505
414;0.9703478999999788;2505
415;0.9723335999988194;2504
416;0.9743576999990182;2504
417;0.9763478999993822;2504
418;0.9784330999991653;2504
419;0.9802868999995553;2504
420;0.9833750999987387;2504
421;0.9863329999989219;2503
422;0.9882787999995344;2503
423;0.9913018999995984;2503
424;0.9933413999988261;2504
425;0.9952038999999786;2504
426;0.997147699999914;2503
427;0.9992906999996194;2503
428;1.0012303999992582;2503
429;1.003247199998441;2503
430;1.0052328999991005;2503
431;1.00722499999938;2503
432;1.0092354999997042;2503
433;1.0112724999999045;2503
434;1.0132828999994672;2503
435;1.0152889000000869;2503
436;1.0172806999999011;2503
437;1.0192737999987003;2503
438;1.0212424999990617;2503
439;1.0232476999990467;2503
440;1.02527740000005;2503
441;1.027260999999271;2503
442;1.02924239999993;2503
443;1.0312579000001278;2503
444;1.033180499998707;2503
445;1.0352505999999266;2503
446;1.0372470000002068;2503
447;1.0392434999994293;2503
448;1.0413088999994216;2503
449;1.0432857999985572;2503
450;1.0452767999995558;2503
451;1.0472718000000896;2503
452;1.0491557999994257;2503
453;1.0512505999995483;2503
454;1.0532266999998683;2503
455;1.0552558999988833;2503
456;1.0572523999999248;2503
457;1.0592856999992364;2503
458;1.0612786000001506;2503
459;1.0633216999995057;2503
460;1.0652781999997387;2503
461;1.0672806999991735;2503
462;1.0692799999997078;2503
463;1.0713263999987248;2503
464;1.0732803999999305;2503
465;1.0752729999985604;2503
466;1.0773003999984212;2503
467;1.0792698999994172;2504
468;1.0812642000000778;2503
469;1.0832352999987052;2503
470;1.0852859999995417;2503
471;1.0872785999999905;2503
472;1.089211599999544;2503
473;1.0912465999990673;2503
474;1.0932604999998148;2503
475;1.0952479999996285;2503
476;1.0972442999991472;2503
477;1.0991693999985728;2503
478;1.101281499999459;2503
479;1.1032734000000346;2503
480;1.1052884000000631;2503
481;1.1072628000001714;2503
482;1.1091877999988355;2503
483;1.1111861999997927;2503
484;1.113218099999358;2503
485;1.1151688999998441;2503
486;1.117242799999076;2503
487;1.1192592999996123;2503
488;1.1212242000001424;2503
489;1.123234799999409;2503
490;1.125229399998716;2503
491;1.1272260999994614;2503
492;1.129251899999872;2503
493;1.1312589999997726;2503
494;1.1332813999997597;2503
495;1.135289499999999;2503
496;1.1373289999992267;2503
497;1.1392686999988655;2503
498;1.1413364000000001;2503
499;1.1432631999996374;2503
500;1.1452871999990748;2503
501;1.1472821999996086;2503
502;1.1491833000000042;2503
503;1.1513196999985666;2503
504;1.153315699999439;2503
505;1.155303699999422;2503
506;1.1572968999989826;2503
507;1.159314099999392;2503
508;1.1613074999986566;2503
509;1.163299099998767;2503
510;1.1653185999984998;2503
511;1.168357399999877;2504
512;1.1703419999994367;2503
513;1.172330499999589;2503
514;1.1743423999996594;2503
515;1.1773403999995935;2503
516;1.1793347999991965;2503
517;1.1813315999988845;2503
518;1.1831989999991492;2503
519;1.1853534999991098;2503
520;1.1873766999997315;2503
521;1.1893402999994578;2502
522;1.1913623999989795;2502
523;1.1933413999995537;2502
524;1.1953441999994538;2502
525;1.1973443999995652;2502
526;1.1991128999998182;2502
527;1.2013620999987324;2502
528;1.2033436999990954;2503
529;1.2053332999985287;2503
530;1.2073700999990251;2503
531;1.209330300000147;2503
532;1.2113621999997122;2503
533;1.213327699999354;2503
534;1.2152601999987382;2503
535;1.218210499999259;2503
536;1.2213213999984873;2503
537;1.2233169999999518;2503
538;1.225332799998796;2503
539;1.227336699999796;2504
540;1.2293249999984255;2503
541;1.2313528999984555;2503
542;1.2334042999991652;2503
543;1.2353545999994822;2503
544;1.2373481999984506;2503
545;1.2393544999995356;2503
546;1.2413194000000658;2503
547;1.2433270999990782;2503
548;1.2453448999985994;2503
549;1.2473603999987972;2503
550;1.2492377999988094;2503
551;1.2513503999998647;2503
552;1.2533320999991702;2503
553;1.2553377999993245;2503
554;1.2573588999985077;2503
555;1.2593430999986595;2503
556;1.2613359999995737;2503
557;1.2643810999998095;2504
558;1.266249099999186;2504
559;1.2683411999987584;2504
560;1.270370099999127;2504
561;1.2723517999984324;2504
562;1.2743484999991779;2503
563;1.2763366999988648;2503
564;1.2782892999985052;2503
565;1.280356799999936;2503
566;1.282326299999113;2503
567;1.2853410999996413;2503
568;1.2873485999989498;2503
569;1.290358299998843;2503
570;1.2934077999998408;2503
571;1.296334199998455;2503
572;1.2983614999993733;2502
573;1.3003523999996105;2502
574;1.3023529000001872;2502
575;1.3043557999990298;2503
576;1.3063586999996915;2502
577;1.3093554999995831;2502
578;1.3113468999999895;2502
579;1.3133330999989994;2502
580;1.3163463000000775;2503
581;1.3183380999998917;2502
582;1.3203440999986924;2502
583;1.3233586999995168;2502
584;1.32645169999887;2502
585;1.3282279999984894;2503
586;1.3313205999984348;2503
587;1.333274699998583;2503
588;1.3352782000001753;2503
589;1.337290399998892;2503
590;1.3403098999988288;2503
591;1.3422811000000365;2503
592;1.3442698999988352;2503
593;1.3462354999992385;2503
594;1.3482184999993478;2503
595;1.3502396999992925;2503
596;1.352323899998737;2503
597;1.3542841999988013;2503
598;1.3562452999995003;2503
599;1.35827049999898;2503
600;1.3602682999990066;2503
601;1.3622451999999612;2504
602;1.3642455999997765;2503
603;1.3662554000002274;2503
604;1.3682255999992776;2503
605;1.3702285999988817;2503
606;1.3722507999991649;2503
607;1.3742333999998664;2503
608;1.376231000000189;2504
609;1.3782420999996248;2503
610;1.3802288999995653;2504
611;1.3822325000001001;2504
612;1.3842346999990696;2504
613;1.3862283999987994;2504
614;1.3882434999995894;2503
615;1.390228299998853;2503
616;1.3922444999989239;2503
617;1.394323099999383;2503
618;1.3968187999998918;2503
619;1.3992201000000932;2503
620;1.401224999999613;2503
621;1.4032286999990902;2503
622;1.4052295999990747;2503
623;1.4072455999994418;2503
624;1.4092019999989134;2503
625;1.4112093999992794;2504
626;1.4132405999989714;2504
627;1.4152290999991237;2503
628;1.417250200000126;2503
629;1.419193499999892;2503
630;1.421205499998905;2503
631;1.4232102999994822;2503
632;1.4251339999991615;2503
633;1.4272131999987323;2504
634;1.4291291999998066;2504
635;1.4311533000000054;2504
636;1.4332909999993717;2503
637;1.4351674999998068;2504
638;1.4372167000001355;2504
639;1.439269599999534;2503
640;1.441177400000015;2503
641;1.443144899998515;2504
642;1.4452673999985564;2503
643;1.4471649999995861;2503
644;1.4491636999991897;2503
645;1.4511710999995557;2504
646;1.4532942999994702;2504
647;1.4552802999987762;2504
648;1.4572451999993064;2504
649;1.4591518999986874;2504
650;1.4611522999985027;2504
651;1.4683664999993198;2504
652;1.4712466999990284;2504
653;1.4732060999995156;2504
654;1.4751806999993278;2504
655;1.4772907999995368;2504
656;1.4793057999995654;2504
657;1.4812289000001329;2504
658;1.4836137999991479;2504
659;1.4862033999997948;2504
660;1.4881609999993088;2504
661;1.4901991999995516;2504
662;1.4921476999988954;2504
663;1.494165999998586;2504
664;1.496176299999206;2504
665;1.4990585999985342;2504
666;1.5012542999993457;2503
667;1.50341010000011;2503
668;1.5052282999986346;2503
669;1.507185299999037;2503
670;1.5092310999989422;2503
671;1.511183999999048;2504
672;1.5140971000000718;2504
673;1.5162349000001996;2504
674;1.5182003999998415;2504
675;1.5202318999999989;2504
676;1.5223194999998668;2503
677;1.5243199999986246;2503
678;1.5261835000001156;2503
679;1.5281952999994246;2503
680;1.5301939999990282;2502
681;1.5321958999993512;2502
682;1.5341946999997162;2502
683;1.5361966999989818;2502
684;1.5381741000001057;2503
685;1.540167899998778;2502
686;1.5422320999987278;2502
687;1.54420669999854;2502
688;1.5462274999990768;2502
689;1.548137099998712;2502
690;1.5502244999988761;2502
691;1.552223699998649;2502
692;1.5541681999984576;2502
693;1.5572003999986919;2502
694;1.5592801999991934;2502
695;1.5612375000000611;2502
696;1.5633110999988276;2502
697;1.5652691999985109;2502
698;1.567259199999171;2502
699;1.5692331999998714;2502
700;1.5711938999993436;2502
701;1.5731974999998783;2502
702;1.576283099999273;2502
703;1.5781938999989507;2502
704;1.5801489999994374;2502
705;1.5822646999986318;2502
706;1.5841951000002155;2502
707;1.5861900999989302;2502
708;1.5881907999992109;2502
709;1.591216999999233;2502
710;1.5933104999985517;2502
711;1.5951313999994454;2502
712;1.5971288999990065;2502
713;1.5992186999992555;2502
714;1.6011220999989746;2502
715;1.6034810000001016;2502
