;time;amplitude
0;0.004745899999761605;2446
1;0.009718799999973271;2446
2;0.014717100000780192;2447
3;0.019546400000763242;2448
4;0.024737400000958587;2449
5;0.029208400001152768;2449
6;0.034732699999949546;2450
7;0.039124300001276424;2450
8;0.043941400001131115;2451
9;0.04841850000047998;2452
10;0.05223910000131582;2453
11;0.05632490000061807;2453
12;0.060207200000149896;2453
13;0.06435600000077102;2453
14;0.06792130000030738;2453
15;0.07080330000098911;2454
16;0.07381350000105158;2454
17;0.0766142000011314;2454
18;0.07852040000034322;2454
19;0.08064759999979287;2454
20;0.08367809999981546;2455
21;0.0866889999997511;2455
22;0.09026030000131868;2455
23;0.09380140000030224;2455
24;0.09821290000036242;2456
25;0.10218669999994745;2457
26;0.10619349999979022;2457
27;0.11013910000110627;2457
28;0.11420660000112548;2458
29;0.11718180000025313;2458
30;0.12096740000015416;2458
31;0.12395079999987502;2458
32;0.12797990000035497;2459
33;0.130800700000691;2459
34;0.13390560000152618;2459
35;0.13691910000125063;2459
36;0.13991810000152327;2459
37;0.1428356000014901;2460
38;0.145742100001371;2460
39;0.148931800000355;2460
40;0.1517254000009416;2461
41;0.15471160000015516;2461
42;0.15794020000066666;2461
43;0.16222209999978077;2461
44;0.16765380000106234;2461
45;0.17263249999996333;2461
46;0.17722740000135673;2462
47;0.18112290000135545;2462
48;0.1850904000002629;2462
49;0.18964090000008582;2462
50;0.1940180000001419;2462
51;0.19791260000056354;2462
52;0.20074690000001283;2461
53;0.203735000000961;2461
54;0.20669480000105978;2461
55;0.20973530000082974;2461
56;0.2126356000007945;2462
57;0.21567160000086005;2462
58;0.21861700000044948;2461
59;0.2205816000005143;2461
60;0.22360160000062024;2460
61;0.22663530000136234;2461
62;0.23029810000116413;2461
63;0.23413020000043616;2460
64;0.23815170000125363;2460
65;0.24216119999982766;2460
66;0.24515940000128467;2460
67;0.24915940000028058;2459
68;0.25316620000012335;2458
69;0.25714850000076694;2458
70;0.2608034000004409;2458
71;0.2639343999999255;2457
72;0.26692650000040885;2457
73;0.2699265999999625;2457
74;0.27397040000141715;2458
75;0.2766869000006409;2457
76;0.2798696999998356;2457
77;0.28286190000108036;2457
78;0.28586510000059207;2456
79;0.2885796000009577;2456
80;0.2914314999998169;2456
81;0.29348920000120415;2456
82;0.2966820000001462;2456
83;0.29970160000084434;2455
84;0.30328630000076373;2455
85;0.30713360000117973;2455
86;0.31069510000088485;2454
87;0.3151662000000215;2454
88;0.31913210000129766;2453
89;0.3221422000005987;2454
90;0.32616280000002007;2454
91;0.32913770000050135;2453
92;0.33316200000081153;2453
93;0.33718210000006366;2453
94;0.34117070000138483;2452
95;0.3451383999999962;2451
96;0.34916730000077223;2451
97;0.3518085000014253;2451
98;0.3548764000006486;2451
99;0.3578845000010915;2451
100;0.36074379999990924;2451
101;0.3638741000013397;2451
102;0.36688909999975294;2450
103;0.36987970000154746;2450
104;0.3729112000000896;2449
105;0.3759289000008721;2449
106;0.37892030000148225;2449
107;0.3817969000010635;2448
108;0.3849472000001697;2448
109;0.38790460000018356;2448
110;0.3909079000004567;2447
111;0.39363200000116194;2447
112;0.3967134000013175;2447
113;0.39949950000118406;2446
114;0.40248460000111663;2446
115;0.4057079000012891;2446
116;0.40929010000036214;2445
117;0.41330890000062936;2444
118;0.41717400000015914;2444
119;0.4211871000006795;2443
120;0.4251623000000109;2442
121;0.42919200000142155;2441
122;0.43313880000096106;2440
123;0.4371588000012707;2440
124;0.4411608000009437;2439
125;0.44482109999989916;2438
126;0.44812350000029255;2438
127;0.45211440000093717;2437
128;0.45614780000141764;2437
129;0.46006540000053064;2436
130;0.4642014000000927;2436
131;0.4681354000003921;2435
132;0.47216610000032233;2435
133;0.476058500000363;2434
134;0.4791447000006883;2433
135;0.4831887000000279;2432
136;0.4871552000004158;2432
137;0.4911753000014869;2432
138;0.493503800000326;2431
139;0.4968968000011955;2431
140;0.49987940000028175;2431
141;0.5028785000013158;2430
142;0.5059195000012551;2430
143;0.508584700000938;2429
144;0.5104937000014615;2429
145;0.5126963000002434;2428
146;0.5156846999998379;2428
147;0.5187084000008326;2428
148;0.5222995000003721;2427
149;0.5252245000010589;2427
150;0.5291778000009799;2426
151;0.533192599999893;2425
152;0.5371906000000308;2425
153;0.541184700001395;2424
154;0.5451809000005596;2423
155;0.5491837000008672;2423
156;0.5531803000012587;2422
157;0.5566640000015468;2422
158;0.5599748000004183;2421
159;0.5630794999997306;2420
160;0.5671701999999641;2419
161;0.5706242000014754;2419
162;0.5741084000001138;2418
163;0.5766121000015119;2418
164;0.5798650000015186;2418
165;0.582867900000565;2417
166;0.5858896999998251;2416
167;0.5889153000007354;2416
168;0.5919161000001623;2416
169;0.5948942000013631;2415
170;0.5978993000007904;2415
171;0.6009090000006836;2414
172;0.6039276000010432;2414
173;0.6068993000008049;2413
174;0.6096840000009252;2413
175;0.6129114000013942;2413
176;0.6159418000006553;2413
177;0.6186061000007612;2412
178;0.6205522000000201;2412
179;0.6227085000009538;2412
180;0.6257119000001694;2411
181;0.6287084000014147;2411
182;0.6322638000001461;2411
183;0.6362853000009636;2410
184;0.6401467000014236;2410
185;0.6437221000014688;2410
186;0.6471013999998831;2409
187;0.6511851000013849;2409
188;0.6551905000014813;2408
189;0.6591794000014488;2408
190;0.6621713000004092;2407
191;0.6662057000012283;2407
192;0.670185400000264;2406
193;0.674172400000316;2406
194;0.6779387000005954;2406
195;0.6806341999999859;2405
196;0.6838781000005838;2404
197;0.6868872000013653;2404
198;0.689904300001217;2404
199;0.6928815999999642;2403
200;0.695947400001387;2403
201;0.6989287000014883;2403
202;0.7018213000010292;2402
203;0.7049437000005128;2402
204;0.7079399000012927;2402
205;0.710765400001037;2401
206;0.713930200001414;2401
207;0.7169430000012653;2400
208;0.7197465000008378;2400
209;0.7230063000006339;2400
210;0.7269690000011906;2400
211;0.7312197000010201;2399
212;0.7349904000002425;2399
213;0.7395485000015469;2399
214;0.7439164000006713;2398
215;0.7468871000000945;2398
216;0.7498113000001467;2398
217;0.7527446000003692;2398
218;0.7563169000004564;2398
219;0.7597439000001032;2398
220;0.7631010000004608;2398
221;0.7671731000009459;2398
222;0.7711624000003212;2398
223;0.7748648000015237;2398
224;0.777831100000185;2398
225;0.7810496000001876;2397
226;0.7840043000014703;2397
227;0.788119300001199;2397
228;0.7918047000002844;2397
229;0.7950538000004599;2397
230;0.7980134000008547;2397
231;0.8010283000003255;2397
232;0.8040494000015315;2397
233;0.806964200000948;2397
234;0.8098992000013823;2397
235;0.8141164000007848;2397
236;0.8181216000011773;2398
237;0.8220978999997897;2398
238;0.8245630000001256;2398
239;0.8278067999999621;2397
240;0.8307887000009941;2397
241;0.8338463000000047;2397
242;0.8368218000014167;2397
243;0.839728599999944;2397
244;0.842751700000008;2397
245;0.8457992000003287;2397
246;0.848756700001104;2397
247;0.8520834000009927;2397
248;0.8561473000008846;2397
249;0.8600560000013502;2397
250;0.8645550000001094;2397
251;0.8698640000002342;2397
252;0.8746284999997442;2397
253;0.8790816000000632;2398
254;0.8833098000013706;2398
255;0.8872393000001466;2398
256;0.8912897000009252;2398
257;0.8951405000007071;2398
258;0.8993974000004528;2398
259;0.903415100001439;2399
260;0.9074054000011529;2399
261;0.9108796000000439;2400
262;0.9142300000003161;2400
263;0.9180419000003894;2401
264;0.9220245000014984;2401
265;0.9259914000012941;2402
266;0.929023300001063;2402
267;0.9319798000014998;2402
268;0.9348188000003574;2403
269;0.9377808000008372;2403
270;0.9410251000008429;2403
271;0.9437436000007438;2404
272;0.9468733000012435;2404
273;0.950013100000433;2404
274;0.9530164000007062;2404
275;0.9560204000008525;2404
276;0.9590172000007442;2405
277;0.9620279999999184;2405
278;0.9649184999998397;2405
279;0.9680352000013954;2405
280;0.9710224000009475;2406
281;0.9750259000011283;2406
282;0.9780184000010195;2406
283;0.9807655000004161;2406
284;0.9840334000000439;2406
285;0.9880442000012408;2406
286;0.9910309000006237;2406
287;0.993736300000819;2407
288;0.9970189000014216;2407
289;1.0000195000011445;2407
290;1.0030397000009543;2407
291;1.0070310000010068;2408
292;1.0107959000015398;2408
293;1.0138079000007565;2408
294;1.0168030000004364;2408
295;1.0197851000011724;2409
296;1.0228008000012778;2410
297;1.0257008000007772;2410
298;1.0298540000003413;2411
299;1.032707800000935;2412
300;1.0356996999998955;2412
301;1.0391107000014017;2412
302;1.0428409000014653;2413
303;1.0456924000009167;2413
304;1.0486713999998756;2413
305;1.0516593000011198;2413
306;1.0546838000009302;2414
307;1.0576849999997648;2414
308;1.0597090000010212;2415
309;1.0626974000006157;2415
310;1.065699400000085;2416
311;1.0691774000006262;2416
312;1.0730536000010034;2417
313;1.0761244000004808;2418
314;1.079046400000152;2418
315;1.0820339000001695;2419
316;1.0848483000008855;2419
317;1.0878501000006509;2419
318;1.0906692000007752;2420
319;1.0935915999998542;2420
320;1.0967231000013271;2420
321;1.099509700001363;2421
322;1.1027021999998396;2421
323;1.1060391000009986;2421
324;1.1099201000015455;2422
325;1.1140804000006028;2422
326;1.1169895000002725;2423
327;1.119840600000316;2424
328;1.1228425000008428;2425
329;1.1258216000005632;2425
330;1.1287881000007474;2425
331;1.1317791000001307;2426
332;1.1347808000009536;2426
333;1.137513300000137;2427
334;1.1395296999999118;2427
335;1.1428305999997974;2428
336;1.1461491000009119;2428
337;1.1500609000013355;2429
338;1.1526847000004636;2429
339;1.155617300000813;2430
340;1.158697500000926;2430
341;1.161460100000113;2431
342;1.16367640000135;2431
343;1.1666740000000573;2432
344;1.1696688000010909;2432
345;1.17322680000143;2432
346;1.1766634000014164;2433
347;1.1801376000003074;2433
348;1.1840237000014895;2434
349;1.1871284000008018;2435
350;1.1911933999999746;2435
351;1.1951984000006632;2436
352;1.1991768000007141;2437
353;1.2032049000008556;2437
354;1.207186300000103;2438
355;1.211142900001505;2438
356;1.2149171000000933;2439
357;1.2180947000015294;2439
358;1.2219592000001285;2440
359;1.2249430000010761;2441
360;1.2279714000014792;2441
361;1.2312073000011878;2442
362;1.2339007999999012;2442
363;1.2367094000001089;2442
364;1.2397175000005518;2443
365;1.2428362000009656;2443
366;1.245963600000323;2444
367;1.2489456000002974;2444
368;1.2518878000009863;2444
369;1.2549305000011373;2445
370;1.2579377000001841;2445
371;1.2606777000000875;2446
372;1.2638326000014786;2446
373;1.2667698000004748;2446
374;1.2695112000001245;2445
375;1.2727000000013504;2446
376;1.2763801000000967;2447
377;1.2789594000005309;2448
378;1.2831965000004857;2449
379;1.2871855000012147;2449
380;1.291188900000634;2450
381;1.2951220000013564;2450
382;1.2991744999999355;2450
383;1.3031888000004983;2451
384;1.3071975000002567;2452
385;1.3111377000004723;2453
386;1.3151845000011235;2453
387;1.3189974000015354;2453
388;1.3220888000014384;2454
389;1.32562660000076;2454
390;1.328888800000641;2454
391;1.331885900000998;2455
392;1.3348849000012706;2455
393;1.3379756000013003;2455
394;1.3411159000006592;2456
395;1.3451136000003316;2457
396;1.3494541000000027;2457
397;1.353230300001087;2457
398;1.3571378000015102;2457
399;1.3612382000010257;2458
400;1.3655233999998018;2458
401;1.3708170000008977;2458
402;1.375267100000201;2458
403;1.3788867000002938;2458
404;1.3834084999998595;2458
405;1.3873265000001993;2459
406;1.3913479000002553;2459
407;1.3953012000001763;2459
408;1.399347000000489;2460
409;1.403295900001467;2460
410;1.4073373999999603;2460
411;1.410922600000049;2460
412;1.414178000000902;2460
413;1.4182574000005843;2460
414;1.4211964000005537;2460
415;1.4252319000006537;2460
416;1.4281832000015129;2460
417;1.432246700000178;2460
418;1.4361917000005633;2460
419;1.4402823000000353;2460
420;1.4437686000001122;2460
421;1.4483482000014192;2460
422;1.4522782000003644;2461
423;1.4563119000013103;2461
424;1.4598571000005904;2460
425;1.4631954000014957;2461
426;1.4661915000015142;2460
427;1.4702403000010236;2460
428;1.4742350000014994;2460
429;1.4782031000013376;2459
430;1.482235800000126;2459
431;1.4845813000010821;2459
432;1.4876897000012832;2459
433;1.4909195000000182;2459
434;1.493654300000344;2459
435;1.4969208000002254;2459
436;1.4999224000002869;2459
437;1.5029174000010244;2458
438;1.5059418000000733;2458
439;1.5089385000010225;2458
440;1.5119489999997313;2458
441;1.5149442000001727;2458
442;1.5179406000006566;2458
443;1.520942200000718;2458
444;1.52394810000078;2457
445;1.5266857000005984;2457
446;1.5295200000000477;2457
447;1.5333538000013505;2457
448;1.5372709000002942;2456
449;1.541177200000675;2456
450;1.545108700000128;2456
451;1.5475876000000426;2456
452;1.5511504000005516;2456
453;1.5551933000006102;2455
454;1.5591851000008319;2454
455;1.5621836999998777;2454
456;1.5661988000010751;2453
457;1.5701875000013388;2453
458;1.574196800000209;2452
459;1.578173699999752;2451
460;1.5821912000010343;2451
461;1.586194900000919;2450
462;1.5901942000000417;2449
463;1.5937878000004275;2449
464;1.5969944000007672;2449
465;1.600089300000036;2448
466;1.6029389000013907;2448
467;1.6059408000000985;2448
468;1.6088455999997677;2448
469;1.6119211000004725;2447
470;1.6148959000001923;2447
471;1.617898000000423;2447
472;1.6207197000003362;2447
473;1.623525900000459;2446
474;1.6267935000014404;2446
475;1.6311905000002298;2446
476;1.635154000001421;2446
477;1.6391914000014367;2446
478;1.6430476000005;2445
479;1.647198800001206;2445
480;1.651186000000962;2445
481;1.6550537000002805;2445
482;1.6592295999998896;2444
483;1.6621654000009585;2444
484;1.666194400000677;2444
485;1.6702119000001403;2443
486;1.6741946000001917;2442
487;1.6781688000010035;2442
488;1.6809775000001537;2441
489;1.683964100000594;2441
490;1.686972000001333;2441
491;1.6899471000015183;2440
492;1.692785700000968;2439
493;1.6958950000007462;2439
494;1.6988928999999189;2438
495;1.701639700000669;2438
496;1.7044436000014684;2438
497;1.7065120000006573;2437
498;1.7096278999997594;2437
499;1.7131402000013622;2436
500;1.7171888000011677;2436
501;1.7211796000010509;2435
502;1.7251802000009775;2434
503;1.728174100000615;2433
504;1.7321884000011778;2433
505;1.7361949000005552;2432
506;1.7401934000008623;2432
507;1.7437024999999267;2431
508;1.7469471000003978;2431
509;1.7496270999999979;2430
510;1.7514446000004682;2429
511;1.7537440000014612;2429
512;1.7567217000014352;2429
513;1.7596592000008968;2428
514;1.763332900000023;2428
515;1.7672797000013816;2428
516;1.7711577000009129;2427
517;1.7751738000006299;2427
518;1.7781736000015371;2426
519;1.7821744000011677;2426
520;1.786179100001391;2425
521;1.7901747000014439;2424
522;1.7938081000011152;2424
523;1.7968787999998312;2423
524;1.799903600000107;2423
525;1.8029076000002533;2422
526;1.805911000001288;2422
527;1.808743499999764;2421
528;1.8116435000010824;2421
529;1.813470099999904;2420
530;1.8157225000013568;2420
531;1.8177117000013823;2420
532;1.8207029000004695;2419
533;1.8237026000006153;2419
534;1.8268211000013252;2419
535;1.8312009000001126;2418
536;1.8351125999997748;2418
537;1.8392089000008127;2417
538;1.8426656000010553;2416
539;1.8461548000013863;2415
540;1.8502026000005571;2415
541;1.8542262000009941;2415
542;1.8581465000006574;2414
543;1.8611242000006314;2413
544;1.8641272000004392;2413
545;1.8669731999998476;2412
546;1.8699632000007114;2412
547;1.873004500001116;2411
548;1.8760185000010097;2411
549;1.878921999999875;2410
550;1.8819198000001052;2410
551;1.8847316999999748;2410
552;1.887760999999955;2409
553;1.8909595000004629;2409
554;1.8938358000013977;2408
555;1.896762000000308;2408
556;1.8997674000002007;2408
557;1.902766100000008;2407
558;1.9058654000000388;2406
559;1.9087356;2406
560;1.9117342000008648;2406
561;1.915311800001291;2406
562;1.9192971000011312;2405
563;1.923251000000164;2404
564;1.9266466999997647;2404
565;1.9301852000007784;2403
566;1.9342285000002448;2403
567;1.938193300000421;2402
568;1.9422260000010283;2402
569;1.9451923000015086;2402
570;1.949201900000844;2402
571;1.9530253000011726;2401
572;1.9559891000008065;2401
573;1.95902180000121;2401
574;1.96194000000105;2401
575;1.9649447000010696;2401
576;1.9676687000010133;2400
577;1.9710693000015453;2400
578;1.975260300001537;2399
579;1.9792550000001938;2400
580;1.9832547000005434;2399
581;1.9876595000005182;2399
582;1.9928362000009656;2398
583;1.9977589000009175;2398
584;2.0025540000006004;2398
585;2.0075621000014507;2398
586;2.0121161000006396;2397
587;2.01596150000114;2397
588;2.0203568000015366;2397
589;2.0239264000010735;2396
590;2.0283127000002423;2396
591;2.031794300000911;2396
592;2.0352946000002703;2396
593;2.039369500000248;2396
594;2.043059200001153;2396
595;2.046928300000218;2396
596;2.0513836999998603;2396
597;2.0553269000010914;2396
598;2.059437500000058;2396
599;2.063177200001519;2396
600;2.0661810000001424;2396
601;2.069068700000571;2396
602;2.0720450000007986;2396
603;2.0750487000004796;2397
604;2.0778435000011086;2397
605;2.080924200001391;2397
606;2.0849045000013575;2397
607;2.089056500000879;2397
608;2.0920514999997977;2397
609;2.09506280000096;2397
610;2.099062100000083;2397
611;2.10306170000149;2397
612;2.107074500001545;2397
613;2.1097977999997966;2397
614;2.112918400000126;2398
615;2.116040900000371;2398
616;2.1190392000007705;2398
617;2.122061100000792;2398
618;2.1248998000010033;2398
619;2.1279430000013235;2398
620;2.130943699999989;2398
621;2.133945000001404;2398
622;2.13693880000028;2398
623;2.1399371000006795;2399
624;2.1427044000010937;2399
625;2.1457766000003176;2399
626;2.148940200000652;2399
627;2.151937700000417;2399
628;2.154893599999923;2399
629;2.1589050000002317;2400
630;2.1619347000014386;2400
631;2.1649507000001904;2400
632;2.1679068000012194;2401
633;2.1709387000009883;2401
634;2.173950700000205;2401
635;2.1766885000015463;2401
636;2.1798979000013787;2401
637;2.1829023999998753;2402
638;2.185941700001422;2402
639;2.1889445000015257;2402
640;2.1919146000000183;2403
641;2.1949349000005896;2403
642;2.197946899999806;2403
643;2.2009185000006255;2403
644;2.2037873000008403;2403
645;2.206946300000709;2403
646;2.2098232000007556;2404
647;2.2129401000001963;2404
648;2.215936300000976;2404
649;2.218949000000066;2404
650;2.2219655999997485;2405
651;2.2249135000001843;2405
652;2.2279051000004984;2406
653;2.230945500001326;2406
654;2.233913800000664;2407
655;2.2367544999997335;2407
656;2.2397548999997525;2407
657;2.2427432000004046;2407
658;2.2461254999998346;2407
659;2.250202100000024;2408
660;2.253174900000886;2408
661;2.2555854000002;2408
662;2.2575226000008115;2408
663;2.2595901000004233;2409
664;2.26149980000082;2409
665;2.2636177000003954;2409
666;2.26561380000021;2410
667;2.2676268000013806;2410
668;2.2696236000010686;2410
669;2.2726993000014772;2410
670;2.2757080999999744;2410
671;2.2803355000014562;2411
672;2.2841595000008965;2412
673;2.2882018000000244;2412
674;2.2921886000003724;2412
675;2.2951990000001388;2412
676;2.29918760000146;2412
677;2.303006500000265;2412
678;2.307002300000022;2413
679;2.3111977000007755;2413
680;2.3147356000008585;2414
681;2.317852500000299;2415
682;2.32073980000132;2415
683;2.324084900001253;2416
684;2.3282697000013286;2416
685;2.3322671000005357;2417
686;2.3364951000003202;2418
687;2.341839400000026;2418
688;2.3461889999998675;2419
689;2.3505619000006845;2420
690;2.3552687000010337;2421
691;2.3593713999998727;2422
692;2.3629627999998775;2422
693;2.365867700000308;2423
694;2.37024940000083;2424
695;2.3742608000011387;2425
696;2.377773199999865;2426
697;2.380728900001486;2426
698;2.3837351000001945;2426
699;2.386676800000714;2427
700;2.3897372000010364;2428
701;2.392889599999762;2428
702;2.397215300001335;2429
703;2.4012253000000783;2429
704;2.4052077000014833;2430
705;2.4092274000013276;2431
706;2.413228600000366;2432
707;2.417227100000673;2432
708;2.4212208000008104;2432
709;2.425216999999975;2433
710;2.428180800001428;2433
711;2.432226900000387;2434
712;2.4362164000012854;2435
713;2.439770099999805;2436
714;2.4426097000014124;2436
715;2.445910800001002;2437
716;2.448904800001401;2438
717;2.451895800000784;2439
718;2.454618900001151;2439
719;2.4581243000011455;2439
